date,ppg,ecg,spo2
2001-01-01T00:00:00.000000,32,0,0
2001-01-01T00:00:00.016667,34,0,0
2001-01-01T00:00:00.033334,32,0,0
2001-01-01T00:00:00.050001,29,0,0
2001-01-01T00:00:00.066668,26,0,0
2001-01-01T00:00:00.083335,24,0,0
2001-01-01T00:00:00.100002,21,0,0
2001-01-01T00:00:00.116669,18,0,0
2001-01-01T00:00:00.133336,16,0,0
2001-01-01T00:00:00.150003,11,0,0
2001-01-01T00:00:00.166670,10,0,0
2001-01-01T00:00:00.183337,12,0,0
2001-01-01T00:00:00.200004,18,0,0
2001-01-01T00:00:00.216671,27,0,0
2001-01-01T00:00:00.233338,39,0,0
2001-01-01T00:00:00.250005,52,0,0
2001-01-01T00:00:00.266672,65,0,0
2001-01-01T00:00:00.283339,75,0,0
2001-01-01T00:00:00.300006,80,0,0
2001-01-01T00:00:00.316673,86,0,0
2001-01-01T00:00:00.333340,83,0,0
2001-01-01T00:00:00.350007,78,0,0
2001-01-01T00:00:00.366674,72,0,0
2001-01-01T00:00:00.383341,65,0,0
2001-01-01T00:00:00.400008,59,0,0
2001-01-01T00:00:00.416675,53,0,0
2001-01-01T00:00:00.433342,47,0,0
2001-01-01T00:00:00.450009,43,0,0
2001-01-01T00:00:00.466676,40,0,0
2001-01-01T00:00:00.483343,37,0,0
2001-01-01T00:00:00.500010,35,0,0
2001-01-01T00:00:00.516677,34,0,0
2001-01-01T00:00:00.533344,34,0,0
2001-01-01T00:00:00.550011,34,0,0
2001-01-01T00:00:00.566678,35,0,0
2001-01-01T00:00:00.583345,35,0,0
2001-01-01T00:00:00.600012,35,0,0
2001-01-01T00:00:00.616679,34,0,0
2001-01-01T00:00:00.633346,32,0,0
2001-01-01T00:00:00.650013,30,0,0
2001-01-01T00:00:00.666680,25,0,0
2001-01-01T00:00:00.683347,23,0,0
2001-01-01T00:00:00.700014,21,0,0
2001-01-01T00:00:00.716681,19,0,0
2001-01-01T00:00:00.733348,17,0,0
2001-01-01T00:00:00.750015,15,0,0
2001-01-01T00:00:00.766682,13,0,0
2001-01-01T00:00:00.783349,11,0,0
2001-01-01T00:00:00.800016,10,0,0
2001-01-01T00:00:00.816683,9,0,0
2001-01-01T00:00:00.833350,12,0,0
2001-01-01T00:00:00.850017,18,0,0
2001-01-01T00:00:00.866684,32,0,0
2001-01-01T00:00:00.883351,43,0,0
2001-01-01T00:00:00.900018,56,0,0
2001-01-01T00:00:00.916685,65,0,0
2001-01-01T00:00:00.933352,73,0,0
2001-01-01T00:00:00.950019,76,0,0
2001-01-01T00:00:00.966686,76,0,0
2001-01-01T00:00:00.983353,72,0,0
2001-01-01T00:00:01.000020,67,0,0
2001-01-01T00:00:01.016687,61,0,0
2001-01-01T00:00:01.033354,55,0,0
2001-01-01T00:00:01.050021,49,0,0
2001-01-01T00:00:01.066688,44,0,0
2001-01-01T00:00:01.083355,45,0,0
2001-01-01T00:00:01.100022,41,0,0
2001-01-01T00:00:01.116689,39,0,0
2001-01-01T00:00:01.133356,37,0,0
2001-01-01T00:00:01.150023,36,0,0
2001-01-01T00:00:01.166690,36,0,0
2001-01-01T00:00:01.183357,37,0,0
2001-01-01T00:00:01.200024,37,0,0
2001-01-01T00:00:01.216691,37,0,0
2001-01-01T00:00:01.233358,37,0,0
2001-01-01T00:00:01.250025,36,0,0
2001-01-01T00:00:01.266692,35,0,0
2001-01-01T00:00:01.283359,33,0,0
2001-01-01T00:00:01.300026,31,0,0
2001-01-01T00:00:01.316693,29,0,0
2001-01-01T00:00:01.333360,27,0,0
2001-01-01T00:00:01.350027,24,0,0
2001-01-01T00:00:01.366694,22,0,0
2001-01-01T00:00:01.383361,20,0,0
2001-01-01T00:00:01.400028,17,0,0
2001-01-01T00:00:01.416695,15,0,0
2001-01-01T00:00:01.433362,13,0,0
2001-01-01T00:00:01.450029,14,0,0
2001-01-01T00:00:01.466696,17,0,0
2001-01-01T00:00:01.483363,24,0,0
2001-01-01T00:00:01.500030,33,0,0
2001-01-01T00:00:01.516697,44,0,0
2001-01-01T00:00:01.533364,53,0,0
2001-01-01T00:00:01.550031,64,0,0
2001-01-01T00:00:01.566698,71,0,0
2001-01-01T00:00:01.583365,74,0,0
2001-01-01T00:00:01.600032,72,0,0
2001-01-01T00:00:01.616699,69,0,0
2001-01-01T00:00:01.633366,68,0,0
2001-01-01T00:00:01.650033,62,0,0
2001-01-01T00:00:01.666700,55,0,0
2001-01-01T00:00:01.683367,50,0,0
2001-01-01T00:00:01.700034,46,0,0
2001-01-01T00:00:01.716701,42,0,0
2001-01-01T00:00:01.733368,39,0,0
2001-01-01T00:00:01.750035,37,0,0
2001-01-01T00:00:01.766702,35,0,0
2001-01-01T00:00:01.783369,35,0,0
2001-01-01T00:00:01.800036,35,0,0
2001-01-01T00:00:01.816703,36,0,0
2001-01-01T00:00:01.833370,37,0,0
2001-01-01T00:00:01.850037,37,0,0
2001-01-01T00:00:01.866704,37,0,0
2001-01-01T00:00:01.883371,36,0,0
2001-01-01T00:00:01.900038,34,0,0
2001-01-01T00:00:01.916705,33,0,0
2001-01-01T00:00:01.933372,35,0,0
2001-01-01T00:00:01.950039,33,0,0
2001-01-01T00:00:01.966706,31,0,0
2001-01-01T00:00:01.983373,28,0,0
2001-01-01T00:00:02.000040,26,0,0
2001-01-01T00:00:02.016707,24,0,0
2001-01-01T00:00:02.033374,21,0,0
2001-01-01T00:00:02.050041,18,0,0
2001-01-01T00:00:02.066708,17,0,0
2001-01-01T00:00:02.083375,16,0,0
2001-01-01T00:00:02.100042,19,0,0
2001-01-01T00:00:02.116709,25,0,0
2001-01-01T00:00:02.133376,35,0,0
2001-01-01T00:00:02.150043,44,0,0
2001-01-01T00:00:02.166710,55,0,0
2001-01-01T00:00:02.183377,63,0,0
2001-01-01T00:00:02.200044,71,0,0
2001-01-01T00:00:02.216711,75,0,0
2001-01-01T00:00:02.233378,74,0,0
2001-01-01T00:00:02.250045,72,0,0
2001-01-01T00:00:02.266712,68,0,0
2001-01-01T00:00:02.283379,64,0,0
2001-01-01T00:00:02.300046,59,0,0
2001-01-01T00:00:02.316713,55,0,0
2001-01-01T00:00:02.333380,52,0,0
2001-01-01T00:00:02.350047,48,0,0
2001-01-01T00:00:02.366714,45,0,0
2001-01-01T00:00:02.383381,46,0,0
2001-01-01T00:00:02.400048,43,0,0
2001-01-01T00:00:02.416715,42,0,0
2001-01-01T00:00:02.433382,40,0,0
2001-01-01T00:00:02.450049,40,0,0
2001-01-01T00:00:02.466716,40,0,0
2001-01-01T00:00:02.483383,40,0,0
2001-01-01T00:00:02.500050,40,0,0
2001-01-01T00:00:02.516717,40,0,0
2001-01-01T00:00:02.533384,39,0,0
2001-01-01T00:00:02.550051,37,0,0
2001-01-01T00:00:02.566718,35,0,0
2001-01-01T00:00:02.583385,33,0,0
2001-01-01T00:00:02.600052,30,0,0
2001-01-01T00:00:02.616719,28,0,0
2001-01-01T00:00:02.633386,26,0,0
2001-01-01T00:00:02.650053,24,0,0
2001-01-01T00:00:02.666720,22,0,0
2001-01-01T00:00:02.683387,20,0,0
2001-01-01T00:00:02.700054,24,0,0
2001-01-01T00:00:02.716721,22,0,0
2001-01-01T00:00:02.733388,22,0,0
2001-01-01T00:00:02.750055,24,0,0
2001-01-01T00:00:02.766722,31,0,0
2001-01-01T00:00:02.783389,40,0,0
2001-01-01T00:00:02.800056,50,0,0
2001-01-01T00:00:02.816723,60,0,0
2001-01-01T00:00:02.833390,70,0,0
2001-01-01T00:00:02.850057,75,0,0
2001-01-01T00:00:02.866724,78,0,0
2001-01-01T00:00:02.883391,77,0,0
2001-01-01T00:00:02.900058,74,0,0
2001-01-01T00:00:02.916725,69,0,0
2001-01-01T00:00:02.933392,65,0,0
2001-01-01T00:00:02.950059,58,0,0
2001-01-01T00:00:02.966726,54,0,0
2001-01-01T00:00:02.983393,50,0,0
2001-01-01T00:00:03.000060,47,0,0
2001-01-01T00:00:03.016727,44,0,0
2001-01-01T00:00:03.033394,42,0,0
2001-01-01T00:00:03.050061,40,0,0
2001-01-01T00:00:03.066728,40,0,0
2001-01-01T00:00:03.083395,40,0,0
2001-01-01T00:00:03.100062,40,0,0
2001-01-01T00:00:03.116729,40,0,0
2001-01-01T00:00:03.133396,40,0,0
2001-01-01T00:00:03.150063,43,0,0
2001-01-01T00:00:03.166730,42,0,0
2001-01-01T00:00:03.183397,39,0,0
2001-01-01T00:00:03.200064,38,0,0
2001-01-01T00:00:03.216731,35,0,0
2001-01-01T00:00:03.233398,33,0,0
2001-01-01T00:00:03.250065,31,0,0
2001-01-01T00:00:03.266732,28,0,0
2001-01-01T00:00:03.283399,27,0,0
2001-01-01T00:00:03.300066,25,0,0
2001-01-01T00:00:03.316733,23,0,0
2001-01-01T00:00:03.333400,22,0,0
2001-01-01T00:00:03.350067,20,0,0
2001-01-01T00:00:03.366734,18,0,0
2001-01-01T00:00:03.383401,17,0,0
2001-01-01T00:00:03.400068,16,0,0
2001-01-01T00:00:03.416735,18,0,0
2001-01-01T00:00:03.433402,22,0,0
2001-01-01T00:00:03.450069,36,0,0
2001-01-01T00:00:03.466736,44,0,0
2001-01-01T00:00:03.483403,55,0,0
2001-01-01T00:00:03.500070,65,0,0
2001-01-01T00:00:03.516737,72,0,0
2001-01-01T00:00:03.533404,76,0,0
2001-01-01T00:00:03.550071,76,0,0
2001-01-01T00:00:03.566738,73,0,0
2001-01-01T00:00:03.583405,69,0,0
2001-01-01T00:00:03.600072,62,0,0
2001-01-01T00:00:03.616739,58,0,0
2001-01-01T00:00:03.633406,54,0,0
2001-01-01T00:00:03.650073,51,0,0
2001-01-01T00:00:03.666740,47,0,0
2001-01-01T00:00:03.683407,44,0,0
2001-01-01T00:00:03.700074,42,0,0
2001-01-01T00:00:03.716741,40,0,0
2001-01-01T00:00:03.733408,40,0,0
2001-01-01T00:00:03.750075,39,0,0
2001-01-01T00:00:03.766742,39,0,0
2001-01-01T00:00:03.783409,40,0,0
2001-01-01T00:00:03.800076,40,0,0
2001-01-01T00:00:03.816743,40,0,0
2001-01-01T00:00:03.833410,39,0,0
2001-01-01T00:00:03.850077,37,0,0
2001-01-01T00:00:03.866744,36,0,0
2001-01-01T00:00:03.883411,34,0,0
2001-01-01T00:00:03.900078,35,0,0
2001-01-01T00:00:03.916745,33,0,0
2001-01-01T00:00:03.933412,31,0,0
2001-01-01T00:00:03.950079,27,0,0
2001-01-01T00:00:03.966746,25,0,0
2001-01-01T00:00:03.983413,23,0,0
2001-01-01T00:00:04.000080,22,0,0
2001-01-01T00:00:04.016747,20,0,0
2001-01-01T00:00:04.033414,19,0,0
2001-01-01T00:00:04.050081,18,0,0
2001-01-01T00:00:04.066748,16,0,0
2001-01-01T00:00:04.083415,15,0,0
2001-01-01T00:00:04.100082,14,0,0
2001-01-01T00:00:04.116749,13,0,0
2001-01-01T00:00:04.133416,14,0,0
2001-01-01T00:00:04.150083,18,0,0
2001-01-01T00:00:04.166750,25,0,0
2001-01-01T00:00:04.183417,34,0,0
2001-01-01T00:00:04.200084,44,0,0
2001-01-01T00:00:04.216751,60,0,0
2001-01-01T00:00:04.233418,68,0,0
2001-01-01T00:00:04.250085,73,0,0
2001-01-01T00:00:04.266752,73,0,0
2001-01-01T00:00:04.283419,71,0,0
2001-01-01T00:00:04.300086,68,0,0
2001-01-01T00:00:04.316753,63,0,0
2001-01-01T00:00:04.333420,58,0,0
2001-01-01T00:00:04.350087,54,0,0
2001-01-01T00:00:04.366754,49,0,0
2001-01-01T00:00:04.383421,46,0,0
2001-01-01T00:00:04.400088,43,0,0
2001-01-01T00:00:04.416755,40,0,0
2001-01-01T00:00:04.433422,39,0,0
2001-01-01T00:00:04.450089,38,0,0
2001-01-01T00:00:04.466756,35,0,0
2001-01-01T00:00:04.483423,35,0,0
2001-01-01T00:00:04.500090,36,0,0
2001-01-01T00:00:04.516757,36,0,0
2001-01-01T00:00:04.533424,36,0,0
2001-01-01T00:00:04.550091,36,0,0
2001-01-01T00:00:04.566758,35,0,0
2001-01-01T00:00:04.583425,33,0,0
2001-01-01T00:00:04.600092,31,0,0
2001-01-01T00:00:04.616759,29,0,0
2001-01-01T00:00:04.633426,27,0,0
2001-01-01T00:00:04.650093,25,0,0
2001-01-01T00:00:04.666760,27,0,0
2001-01-01T00:00:04.683427,25,0,0
2001-01-01T00:00:04.700094,22,0,0
2001-01-01T00:00:04.716761,21,0,0
2001-01-01T00:00:04.733428,20,0,0
2001-01-01T00:00:04.750095,19,0,0
2001-01-01T00:00:04.766762,17,0,0
2001-01-01T00:00:04.783429,16,0,0
2001-01-01T00:00:04.800096,15,0,0
2001-01-01T00:00:04.816763,15,0,0
2001-01-01T00:00:04.833430,14,0,0
2001-01-01T00:00:04.850097,13,0,0
2001-01-01T00:00:04.866764,14,0,0
2001-01-01T00:00:04.883431,17,0,0
2001-01-01T00:00:04.900098,23,0,0
2001-01-01T00:00:04.916765,31,0,0
2001-01-01T00:00:04.933432,41,0,0
2001-01-01T00:00:04.950099,51,0,0
2001-01-01T00:00:04.966766,60,0,0
2001-01-01T00:00:04.983433,65,0,0
2001-01-01T00:00:05.000100,67,0,0
2001-01-01T00:00:05.016767,65,0,0
2001-01-01T00:00:05.033434,61,0,0
2001-01-01T00:00:05.050101,56,0,0
2001-01-01T00:00:05.066768,56,0,0
2001-01-01T00:00:05.083435,51,0,0
2001-01-01T00:00:05.100102,47,0,0
2001-01-01T00:00:05.116769,44,0,0
2001-01-01T00:00:05.133436,41,0,0
2001-01-01T00:00:05.150103,40,0,0
2001-01-01T00:00:05.166770,38,0,0
2001-01-01T00:00:05.183437,37,0,0
2001-01-01T00:00:05.200104,37,0,0
2001-01-01T00:00:05.216771,34,0,0
2001-01-01T00:00:05.233438,35,0,0
2001-01-01T00:00:05.250105,36,0,0
2001-01-01T00:00:05.266772,36,0,0
2001-01-01T00:00:05.283439,36,0,0
2001-01-01T00:00:05.300106,34,0,0
2001-01-01T00:00:05.316773,33,0,0
2001-01-01T00:00:05.333440,31,0,0
2001-01-01T00:00:05.350107,29,0,0
2001-01-01T00:00:05.366774,27,0,0
2001-01-01T00:00:05.383441,25,0,0
2001-01-01T00:00:05.400108,24,0,0
2001-01-01T00:00:05.416775,22,0,0
2001-01-01T00:00:05.433442,21,0,0
2001-01-01T00:00:05.450109,20,0,0
2001-01-01T00:00:05.466776,19,0,0
2001-01-01T00:00:05.483443,17,0,0
2001-01-01T00:00:05.500110,16,0,0
2001-01-01T00:00:05.516777,19,0,0
2001-01-01T00:00:05.533444,18,0,0
2001-01-01T00:00:05.550111,17,0,0
2001-01-01T00:00:05.566778,14,0,0
2001-01-01T00:00:05.583445,15,0,0
2001-01-01T00:00:05.600112,19,0,0
2001-01-01T00:00:05.616779,26,0,0
2001-01-01T00:00:05.633446,34,0,0
2001-01-01T00:00:05.650113,43,0,0
2001-01-01T00:00:05.666780,54,0,0
2001-01-01T00:00:05.683447,62,0,0
2001-01-01T00:00:05.700114,67,0,0
2001-01-01T00:00:05.716781,68,0,0
2001-01-01T00:00:05.733448,67,0,0
2001-01-01T00:00:05.750115,63,0,0
2001-01-01T00:00:05.766782,59,0,0
2001-01-01T00:00:05.783449,54,0,0
2001-01-01T00:00:05.800116,50,0,0
2001-01-01T00:00:05.816783,46,0,0
2001-01-01T00:00:05.833450,48,0,0
2001-01-01T00:00:05.850117,44,0,0
2001-01-01T00:00:05.866784,41,0,0
2001-01-01T00:00:05.883451,39,0,0
2001-01-01T00:00:05.900118,38,0,0
2001-01-01T00:00:05.916785,37,0,0
2001-01-01T00:00:05.933452,38,0,0
2001-01-01T00:00:05.950119,38,0,0
2001-01-01T00:00:05.966786,38,0,0
2001-01-01T00:00:05.983453,38,0,0
2001-01-01T00:00:06.000120,37,0,0
2001-01-01T00:00:06.016787,36,0,0
2001-01-01T00:00:06.033454,35,0,0
2001-01-01T00:00:06.050121,33,0,0
2001-01-01T00:00:06.066788,31,0,0
2001-01-01T00:00:06.083455,25,0,0
2001-01-01T00:00:06.100122,23,0,0
2001-01-01T00:00:06.116789,22,0,0
2001-01-01T00:00:06.133456,20,0,0
2001-01-01T00:00:06.150123,18,0,0
2001-01-01T00:00:06.166790,17,0,0
2001-01-01T00:00:06.183457,16,0,0
2001-01-01T00:00:06.200124,15,0,0
2001-01-01T00:00:06.216791,14,0,0
2001-01-01T00:00:06.233458,13,0,0
2001-01-01T00:00:06.250125,11,0,0
2001-01-01T00:00:06.266792,10,0,0
2001-01-01T00:00:06.283459,10,0,0
2001-01-01T00:00:06.300126,13,0,0
2001-01-01T00:00:06.316793,17,0,0
2001-01-01T00:00:06.333460,26,0,0
2001-01-01T00:00:06.350127,37,0,0
2001-01-01T00:00:06.366794,47,0,0
2001-01-01T00:00:06.383461,61,0,0
2001-01-01T00:00:06.400128,69,0,0
2001-01-01T00:00:06.416795,72,0,0
2001-01-01T00:00:06.433462,72,0,0
2001-01-01T00:00:06.450129,69,0,0
2001-01-01T00:00:06.466796,65,0,0
2001-01-01T00:00:06.483463,61,0,0
2001-01-01T00:00:06.500130,56,0,0
2001-01-01T00:00:06.516797,51,0,0
2001-01-01T00:00:06.533464,47,0,0
2001-01-01T00:00:06.550131,44,0,0
2001-01-01T00:00:06.566798,41,0,0
2001-01-01T00:00:06.583465,44,0,0
2001-01-01T00:00:06.600132,41,0,0
2001-01-01T00:00:06.616799,40,0,0
2001-01-01T00:00:06.633466,40,0,0
2001-01-01T00:00:06.650133,40,0,0
2001-01-01T00:00:06.666800,40,0,0
2001-01-01T00:00:06.683467,40,0,0
2001-01-01T00:00:06.700134,39,0,0
2001-01-01T00:00:06.716801,39,0,0
2001-01-01T00:00:06.733468,38,0,0
2001-01-01T00:00:06.750135,36,0,0
2001-01-01T00:00:06.766802,33,0,0
2001-01-01T00:00:06.783469,31,0,0
2001-01-01T00:00:06.800136,29,0,0
2001-01-01T00:00:06.816803,27,0,0
2001-01-01T00:00:06.833470,22,0,0
2001-01-01T00:00:06.850137,20,0,0
2001-01-01T00:00:06.866804,18,0,0
2001-01-01T00:00:06.883471,17,0,0
2001-01-01T00:00:06.900138,15,0,0
2001-01-01T00:00:06.916805,14,0,0
2001-01-01T00:00:06.933472,13,0,0
2001-01-01T00:00:06.950139,12,0,0
2001-01-01T00:00:06.966806,11,0,0
2001-01-01T00:00:06.983473,11,0,0
2001-01-01T00:00:07.000140,12,0,0
2001-01-01T00:00:07.016807,18,0,0
2001-01-01T00:00:07.033474,30,0,0
2001-01-01T00:00:07.050141,39,0,0
2001-01-01T00:00:07.066808,49,0,0
2001-01-01T00:00:07.083475,58,0,0
2001-01-01T00:00:07.100142,66,0,0
2001-01-01T00:00:07.116809,70,0,0
2001-01-01T00:00:07.133476,70,0,0
2001-01-01T00:00:07.150143,68,0,0
2001-01-01T00:00:07.166810,64,0,0
2001-01-01T00:00:07.183477,59,0,0
2001-01-01T00:00:07.200144,54,0,0
2001-01-01T00:00:07.216811,49,0,0
2001-01-01T00:00:07.233478,45,0,0
2001-01-01T00:00:07.250145,42,0,0
2001-01-01T00:00:07.266812,39,0,0
2001-01-01T00:00:07.283479,36,0,0
2001-01-01T00:00:07.300146,34,0,0
2001-01-01T00:00:07.316813,33,0,0
2001-01-01T00:00:07.333480,32,0,0
2001-01-01T00:00:07.350147,38,0,0
2001-01-01T00:00:07.366814,38,0,0
2001-01-01T00:00:07.383481,38,0,0
2001-01-01T00:00:07.400148,38,0,0
2001-01-01T00:00:07.416815,37,0,0
2001-01-01T00:00:07.433482,36,0,0
2001-01-01T00:00:07.450149,34,0,0
2001-01-01T00:00:07.466816,31,0,0
2001-01-01T00:00:07.483483,29,0,0
2001-01-01T00:00:07.500150,26,0,0
2001-01-01T00:00:07.516817,24,0,0
2001-01-01T00:00:07.533484,22,0,0
2001-01-01T00:00:07.550151,20,0,0
2001-01-01T00:00:07.566818,18,0,0
2001-01-01T00:00:07.583485,17,0,0
2001-01-01T00:00:07.600152,12,0,0
2001-01-01T00:00:07.616819,11,0,0
2001-01-01T00:00:07.633486,10,0,0
2001-01-01T00:00:07.650153,9,0,0
2001-01-01T00:00:07.666820,9,0,0
2001-01-01T00:00:07.683487,8,0,0
2001-01-01T00:00:07.700154,9,0,0
2001-01-01T00:00:07.716821,14,0,0
2001-01-01T00:00:07.733488,19,0,0
2001-01-01T00:00:07.750155,29,0,0
2001-01-01T00:00:07.766822,40,0,0
2001-01-01T00:00:07.783489,49,0,0
2001-01-01T00:00:07.800156,62,0,0
2001-01-01T00:00:07.816823,67,0,0
2001-01-01T00:00:07.833490,68,0,0
2001-01-01T00:00:07.850157,66,0,0
2001-01-01T00:00:07.866824,61,0,0
2001-01-01T00:00:07.883491,56,0,0
2001-01-01T00:00:07.900158,50,0,0
2001-01-01T00:00:07.916825,45,0,0
2001-01-01T00:00:07.933492,40,0,0
2001-01-01T00:00:07.950159,37,0,0
2001-01-01T00:00:07.966826,33,0,0
2001-01-01T00:00:07.983493,31,0,0
2001-01-01T00:00:08.000160,29,0,0
2001-01-01T00:00:08.016827,28,0,0
2001-01-01T00:00:08.033494,28,0,0
2001-01-01T00:00:08.050161,29,0,0
2001-01-01T00:00:08.066828,30,0,0
2001-01-01T00:00:08.083495,31,0,0
2001-01-01T00:00:08.100162,37,0,0
2001-01-01T00:00:08.116829,36,0,0
2001-01-01T00:00:08.133496,35,0,0
2001-01-01T00:00:08.150163,34,0,0
2001-01-01T00:00:08.166830,32,0,0
2001-01-01T00:00:08.183497,30,0,0
2001-01-01T00:00:08.200164,27,0,0
2001-01-01T00:00:08.216831,25,0,0
2001-01-01T00:00:08.233498,23,0,0
2001-01-01T00:00:08.250165,21,0,0
2001-01-01T00:00:08.266832,19,0,0
2001-01-01T00:00:08.283499,18,0,0
2001-01-01T00:00:08.300166,16,0,0
2001-01-01T00:00:08.316833,14,0,0
2001-01-01T00:00:08.333500,13,0,0
2001-01-01T00:00:08.350167,9,0,0
2001-01-01T00:00:08.366834,8,0,0
2001-01-01T00:00:08.383501,10,0,0
2001-01-01T00:00:08.400168,14,0,0
2001-01-01T00:00:08.416835,20,0,0
2001-01-01T00:00:08.433502,30,0,0
2001-01-01T00:00:08.450169,40,0,0
2001-01-01T00:00:08.466836,51,0,0
2001-01-01T00:00:08.483503,59,0,0
2001-01-01T00:00:08.500170,62,0,0
2001-01-01T00:00:08.516837,63,0,0
2001-01-01T00:00:08.533504,61,0,0
2001-01-01T00:00:08.550171,60,0,0
2001-01-01T00:00:08.566838,54,0,0
2001-01-01T00:00:08.583505,48,0,0
2001-01-01T00:00:08.600172,43,0,0
2001-01-01T00:00:08.616839,40,0,0
2001-01-01T00:00:08.633506,35,0,0
2001-01-01T00:00:08.650173,33,0,0
2001-01-01T00:00:08.666840,31,0,0
2001-01-01T00:00:08.683507,30,0,0
2001-01-01T00:00:08.700174,30,0,0
2001-01-01T00:00:08.716841,31,0,0
2001-01-01T00:00:08.733508,32,0,0
2001-01-01T00:00:08.750175,33,0,0
2001-01-01T00:00:08.766842,34,0,0
2001-01-01T00:00:08.783509,35,0,0
2001-01-01T00:00:08.800176,34,0,0
2001-01-01T00:00:08.816843,33,0,0
2001-01-01T00:00:08.833510,31,0,0
2001-01-01T00:00:08.850177,29,0,0
2001-01-01T00:00:08.866844,32,0,0
2001-01-01T00:00:08.883511,30,0,0
2001-01-01T00:00:08.900178,28,0,0
2001-01-01T00:00:08.916845,26,0,0
2001-01-01T00:00:08.933512,24,0,0
2001-01-01T00:00:08.950179,22,0,0
2001-01-01T00:00:08.966846,21,0,0
2001-01-01T00:00:08.983513,19,0,0
2001-01-01T00:00:09.000180,18,0,0
2001-01-01T00:00:09.016847,16,0,0
2001-01-01T00:00:09.033514,15,0,0
2001-01-01T00:00:09.050181,16,0,0
2001-01-01T00:00:09.066848,20,0,0
2001-01-01T00:00:09.083515,27,0,0
2001-01-01T00:00:09.100182,36,0,0
2001-01-01T00:00:09.116849,46,0,0
2001-01-01T00:00:09.133516,57,0,0
2001-01-01T00:00:09.150183,65,0,0
2001-01-01T00:00:09.166850,71,0,0
2001-01-01T00:00:09.183517,72,0,0
2001-01-01T00:00:09.200184,70,0,0
2001-01-01T00:00:09.216851,63,0,0
2001-01-01T00:00:09.233518,58,0,0
2001-01-01T00:00:09.250185,54,0,0
2001-01-01T00:00:09.266852,49,0,0
2001-01-01T00:00:09.283519,45,0,0
2001-01-01T00:00:09.300186,41,0,0
2001-01-01T00:00:09.316853,39,0,0
2001-01-01T00:00:09.333520,36,0,0
2001-01-01T00:00:09.350187,33,0,0
2001-01-01T00:00:09.366854,32,0,0
2001-01-01T00:00:09.383521,32,0,0
2001-01-01T00:00:09.400188,33,0,0
2001-01-01T00:00:09.416855,37,0,0
2001-01-01T00:00:09.433522,38,0,0
2001-01-01T00:00:09.450189,39,0,0
2001-01-01T00:00:09.466856,39,0,0
2001-01-01T00:00:09.483523,38,0,0
2001-01-01T00:00:09.500190,37,0,0
2001-01-01T00:00:09.516857,35,0,0
2001-01-01T00:00:09.533524,33,0,0
2001-01-01T00:00:09.550191,30,0,0
2001-01-01T00:00:09.566858,28,0,0
2001-01-01T00:00:09.583525,26,0,0
2001-01-01T00:00:09.600192,24,0,0
2001-01-01T00:00:09.616859,28,0,0
2001-01-01T00:00:09.633526,25,0,0
2001-01-01T00:00:09.650193,24,0,0
2001-01-01T00:00:09.666860,22,0,0
2001-01-01T00:00:09.683527,21,0,0
2001-01-01T00:00:09.700194,21,0,0
2001-01-01T00:00:09.716861,23,0,0
2001-01-01T00:00:09.733528,28,0,0
2001-01-01T00:00:09.750195,36,0,0
2001-01-01T00:00:09.766862,46,0,0
2001-01-01T00:00:09.783529,56,0,0
2001-01-01T00:00:09.800196,67,0,0
2001-01-01T00:00:09.816863,74,0,0
2001-01-01T00:00:09.833530,77,0,0
2001-01-01T00:00:09.850197,77,0,0
2001-01-01T00:00:09.866864,72,0,0
2001-01-01T00:00:09.883531,68,0,0
2001-01-01T00:00:09.900198,63,0,0
2001-01-01T00:00:09.916865,59,0,0
2001-01-01T00:00:09.933532,55,0,0
2001-01-01T00:00:09.950199,51,0,0
2001-01-01T00:00:09.966866,48,0,0
2001-01-01T00:00:09.983533,45,0,0
2001-01-01T00:00:10.000200,67,0,0
2001-01-01T00:00:10.016867,61,0,0
2001-01-01T00:00:10.033534,55,0,0
2001-01-01T00:00:10.050201,49,0,0
2001-01-01T00:00:10.066868,44,0,0
2001-01-01T00:00:10.083535,45,0,0
2001-01-01T00:00:10.100202,41,0,0
2001-01-01T00:00:10.116869,39,0,0
2001-01-01T00:00:10.133536,37,0,0
2001-01-01T00:00:10.150203,36,0,0
2001-01-01T00:00:10.166870,36,0,0
2001-01-01T00:00:10.183537,37,0,0
2001-01-01T00:00:10.200204,37,0,0
2001-01-01T00:00:10.216871,37,0,0
2001-01-01T00:00:10.233538,37,0,0
2001-01-01T00:00:10.250205,36,0,0
2001-01-01T00:00:10.266872,35,0,0
2001-01-01T00:00:10.283539,33,0,0
2001-01-01T00:00:10.300206,31,0,0
2001-01-01T00:00:10.316873,29,0,0
2001-01-01T00:00:10.333540,27,0,0
2001-01-01T00:00:10.350207,24,0,0
2001-01-01T00:00:10.366874,22,0,0
2001-01-01T00:00:10.383541,20,0,0
2001-01-01T00:00:10.400208,17,0,0
2001-01-01T00:00:10.416875,15,0,0
2001-01-01T00:00:10.433542,13,0,0
2001-01-01T00:00:10.450209,14,0,0
2001-01-01T00:00:10.466876,17,0,0
2001-01-01T00:00:10.483543,24,0,0
2001-01-01T00:00:10.500210,33,0,0
2001-01-01T00:00:10.516877,44,0,0
2001-01-01T00:00:10.533544,53,0,0
2001-01-01T00:00:10.550211,64,0,0
2001-01-01T00:00:10.566878,71,0,0
2001-01-01T00:00:10.583545,74,0,0
2001-01-01T00:00:10.600212,72,0,0
2001-01-01T00:00:10.616879,69,0,0
2001-01-01T00:00:10.633546,68,0,0
2001-01-01T00:00:10.650213,62,0,0
2001-01-01T00:00:10.666880,55,0,0
2001-01-01T00:00:10.683547,50,0,0
2001-01-01T00:00:10.700214,46,0,0
2001-01-01T00:00:10.716881,42,0,0
2001-01-01T00:00:10.733548,39,0,0
2001-01-01T00:00:10.750215,37,0,0
2001-01-01T00:00:10.766882,35,0,0
2001-01-01T00:00:10.783549,35,0,0
2001-01-01T00:00:10.800216,35,0,0
2001-01-01T00:00:10.816883,36,0,0
2001-01-01T00:00:10.833550,37,0,0
2001-01-01T00:00:10.850217,37,0,0
2001-01-01T00:00:10.866884,37,0,0
2001-01-01T00:00:10.883551,36,0,0
2001-01-01T00:00:10.900218,34,0,0
2001-01-01T00:00:10.916885,33,0,0
2001-01-01T00:00:10.933552,35,0,0
2001-01-01T00:00:10.950219,33,0,0
2001-01-01T00:00:10.966886,31,0,0
2001-01-01T00:00:10.983553,28,0,0
2001-01-01T00:00:11.000220,26,0,0
2001-01-01T00:00:11.016887,24,0,0
2001-01-01T00:00:11.033554,21,0,0
2001-01-01T00:00:11.050221,18,0,0
2001-01-01T00:00:11.066888,17,0,0
2001-01-01T00:00:11.083555,16,0,0
2001-01-01T00:00:11.100222,19,0,0
2001-01-01T00:00:11.116889,25,0,0
2001-01-01T00:00:11.133556,35,0,0
2001-01-01T00:00:11.150223,44,0,0
2001-01-01T00:00:11.166890,55,0,0
2001-01-01T00:00:11.183557,63,0,0
2001-01-01T00:00:11.200224,71,0,0
2001-01-01T00:00:11.216891,75,0,0
2001-01-01T00:00:11.233558,74,0,0
2001-01-01T00:00:11.250225,72,0,0
2001-01-01T00:00:11.266892,68,0,0
2001-01-01T00:00:11.283559,64,0,0
2001-01-01T00:00:11.300226,59,0,0
2001-01-01T00:00:11.316893,55,0,0
2001-01-01T00:00:11.333560,52,0,0
2001-01-01T00:00:11.350227,48,0,0
2001-01-01T00:00:11.366894,45,0,0
2001-01-01T00:00:11.383561,46,0,0
2001-01-01T00:00:11.400228,43,0,0
2001-01-01T00:00:11.416895,42,0,0
2001-01-01T00:00:11.433562,40,0,0
2001-01-01T00:00:11.450229,40,0,0
2001-01-01T00:00:11.466896,40,0,0
2001-01-01T00:00:11.483563,40,0,0
2001-01-01T00:00:11.500230,40,0,0
2001-01-01T00:00:11.516897,40,0,0
2001-01-01T00:00:11.533564,39,0,0
2001-01-01T00:00:11.550231,37,0,0
2001-01-01T00:00:11.566898,35,0,0
2001-01-01T00:00:11.583565,33,0,0
2001-01-01T00:00:11.600232,30,0,0
2001-01-01T00:00:11.616899,28,0,0
2001-01-01T00:00:11.633566,26,0,0
2001-01-01T00:00:11.650233,24,0,0
2001-01-01T00:00:11.666900,22,0,0
2001-01-01T00:00:11.683567,20,0,0
2001-01-01T00:00:11.700234,24,0,0
2001-01-01T00:00:11.716901,22,0,0
2001-01-01T00:00:11.733568,22,0,0
2001-01-01T00:00:11.750235,24,0,0
2001-01-01T00:00:11.766902,31,0,0
2001-01-01T00:00:11.783569,40,0,0
2001-01-01T00:00:11.800236,50,0,0
2001-01-01T00:00:11.816903,60,0,0
2001-01-01T00:00:11.833570,70,0,0
2001-01-01T00:00:11.850237,75,0,0
2001-01-01T00:00:11.866904,78,0,0
2001-01-01T00:00:11.883571,77,0,0
2001-01-01T00:00:11.900238,74,0,0
2001-01-01T00:00:11.916905,69,0,0
2001-01-01T00:00:11.933572,65,0,0
2001-01-01T00:00:11.950239,58,0,0
2001-01-01T00:00:11.966906,54,0,0
2001-01-01T00:00:11.983573,50,0,0
2001-01-01T00:00:12.000240,47,0,0
2001-01-01T00:00:12.016907,44,0,0
2001-01-01T00:00:12.033574,42,0,0
2001-01-01T00:00:12.050241,40,0,0
2001-01-01T00:00:12.066908,40,0,0
2001-01-01T00:00:12.083575,40,0,0
2001-01-01T00:00:12.100242,40,0,0
2001-01-01T00:00:12.116909,40,0,0
2001-01-01T00:00:12.133576,40,0,0
2001-01-01T00:00:12.150243,43,0,0
2001-01-01T00:00:12.166910,42,0,0
2001-01-01T00:00:12.183577,39,0,0
2001-01-01T00:00:12.200244,38,0,0
2001-01-01T00:00:12.216911,35,0,0
2001-01-01T00:00:12.233578,33,0,0
2001-01-01T00:00:12.250245,31,0,0
2001-01-01T00:00:12.266912,28,0,0
2001-01-01T00:00:12.283579,27,0,0
2001-01-01T00:00:12.300246,25,0,0
2001-01-01T00:00:12.316913,23,0,0
2001-01-01T00:00:12.333580,22,0,0
2001-01-01T00:00:12.350247,20,0,0
2001-01-01T00:00:12.366914,18,0,0
2001-01-01T00:00:12.383581,17,0,0
2001-01-01T00:00:12.400248,16,0,0
2001-01-01T00:00:12.416915,18,0,0
2001-01-01T00:00:12.433582,22,0,0
2001-01-01T00:00:12.450249,36,0,0
2001-01-01T00:00:12.466916,44,0,0
2001-01-01T00:00:12.483583,55,0,0
2001-01-01T00:00:12.500250,65,0,0
2001-01-01T00:00:12.516917,72,0,0
2001-01-01T00:00:12.533584,76,0,0
2001-01-01T00:00:12.550251,76,0,0
2001-01-01T00:00:12.566918,73,0,0
2001-01-01T00:00:12.583585,69,0,0
2001-01-01T00:00:12.600252,62,0,0
2001-01-01T00:00:12.616919,58,0,0
2001-01-01T00:00:12.633586,54,0,0
2001-01-01T00:00:12.650253,51,0,0
2001-01-01T00:00:12.666920,47,0,0
2001-01-01T00:00:12.683587,44,0,0
2001-01-01T00:00:12.700254,42,0,0
2001-01-01T00:00:12.716921,40,0,0
2001-01-01T00:00:12.733588,40,0,0
2001-01-01T00:00:12.750255,39,0,0
2001-01-01T00:00:12.766922,39,0,0
2001-01-01T00:00:12.783589,40,0,0
2001-01-01T00:00:12.800256,40,0,0
2001-01-01T00:00:12.816923,40,0,0
2001-01-01T00:00:12.833590,39,0,0
2001-01-01T00:00:12.850257,37,0,0
2001-01-01T00:00:12.866924,36,0,0
2001-01-01T00:00:12.883591,34,0,0
2001-01-01T00:00:12.900258,35,0,0
2001-01-01T00:00:12.916925,33,0,0
2001-01-01T00:00:12.933592,31,0,0
2001-01-01T00:00:12.950259,27,0,0
2001-01-01T00:00:12.966926,25,0,0
2001-01-01T00:00:12.983593,23,0,0
2001-01-01T00:00:13.000260,22,0,0
2001-01-01T00:00:13.016927,20,0,0
2001-01-01T00:00:13.033594,19,0,0
2001-01-01T00:00:13.050261,18,0,0
2001-01-01T00:00:13.066928,16,0,0
2001-01-01T00:00:13.083595,15,0,0
2001-01-01T00:00:13.100262,14,0,0
2001-01-01T00:00:13.116929,13,0,0
2001-01-01T00:00:13.133596,14,0,0
2001-01-01T00:00:13.150263,18,0,0
2001-01-01T00:00:13.166930,25,0,0
2001-01-01T00:00:13.183597,34,0,0
2001-01-01T00:00:13.200264,44,0,0
2001-01-01T00:00:13.216931,60,0,0
2001-01-01T00:00:13.233598,68,0,0
2001-01-01T00:00:13.250265,73,0,0
2001-01-01T00:00:13.266932,73,0,0
2001-01-01T00:00:13.283599,71,0,0
2001-01-01T00:00:13.300266,68,0,0
2001-01-01T00:00:13.316933,63,0,0
2001-01-01T00:00:13.333600,58,0,0
2001-01-01T00:00:13.350267,54,0,0
2001-01-01T00:00:13.366934,49,0,0
2001-01-01T00:00:13.383601,46,0,0
2001-01-01T00:00:13.400268,43,0,0
2001-01-01T00:00:13.416935,40,0,0
2001-01-01T00:00:13.433602,39,0,0
2001-01-01T00:00:13.450269,38,0,0
2001-01-01T00:00:13.466936,35,0,0
2001-01-01T00:00:13.483603,35,0,0
2001-01-01T00:00:13.500270,36,0,0
2001-01-01T00:00:13.516937,36,0,0
2001-01-01T00:00:13.533604,36,0,0
2001-01-01T00:00:13.550271,36,0,0
2001-01-01T00:00:13.566938,35,0,0
2001-01-01T00:00:13.583605,33,0,0
2001-01-01T00:00:13.600272,31,0,0
2001-01-01T00:00:13.616939,29,0,0
2001-01-01T00:00:13.633606,27,0,0
2001-01-01T00:00:13.650273,25,0,0
2001-01-01T00:00:13.666940,27,0,0
2001-01-01T00:00:13.683607,25,0,0
2001-01-01T00:00:13.700274,22,0,0
2001-01-01T00:00:13.716941,21,0,0
2001-01-01T00:00:13.733608,20,0,0
2001-01-01T00:00:13.750275,19,0,0
2001-01-01T00:00:13.766942,17,0,0
2001-01-01T00:00:13.783609,16,0,0
2001-01-01T00:00:13.800276,15,0,0
2001-01-01T00:00:13.816943,15,0,0
2001-01-01T00:00:13.833610,14,0,0
2001-01-01T00:00:13.850277,13,0,0
2001-01-01T00:00:13.866944,14,0,0
2001-01-01T00:00:13.883611,17,0,0
2001-01-01T00:00:13.900278,23,0,0
2001-01-01T00:00:13.916945,31,0,0
2001-01-01T00:00:13.933612,41,0,0
2001-01-01T00:00:13.950279,51,0,0
2001-01-01T00:00:13.966946,60,0,0
2001-01-01T00:00:13.983613,65,0,0
2001-01-01T00:00:14.000280,67,0,0
2001-01-01T00:00:14.016947,65,0,0
2001-01-01T00:00:14.033614,61,0,0
2001-01-01T00:00:14.050281,56,0,0
2001-01-01T00:00:14.066948,56,0,0
2001-01-01T00:00:14.083615,51,0,0
2001-01-01T00:00:14.100282,47,0,0
2001-01-01T00:00:14.116949,44,0,0
2001-01-01T00:00:14.133616,41,0,0
2001-01-01T00:00:14.150283,40,0,0
2001-01-01T00:00:14.166950,38,0,0
2001-01-01T00:00:14.183617,37,0,0
2001-01-01T00:00:14.200284,37,0,0
2001-01-01T00:00:14.216951,34,0,0
2001-01-01T00:00:14.233618,35,0,0
2001-01-01T00:00:14.250285,36,0,0
2001-01-01T00:00:14.266952,36,0,0
2001-01-01T00:00:14.283619,36,0,0
2001-01-01T00:00:14.300286,34,0,0
2001-01-01T00:00:14.316953,33,0,0
2001-01-01T00:00:14.333620,31,0,0
2001-01-01T00:00:14.350287,29,0,0
2001-01-01T00:00:14.366954,27,0,0
2001-01-01T00:00:14.383621,25,0,0
2001-01-01T00:00:14.400288,24,0,0
2001-01-01T00:00:14.416955,22,0,0
2001-01-01T00:00:14.433622,21,0,0
2001-01-01T00:00:14.450289,20,0,0
2001-01-01T00:00:14.466956,19,0,0
2001-01-01T00:00:14.483623,17,0,0
2001-01-01T00:00:14.500290,16,0,0
2001-01-01T00:00:14.516957,19,0,0
2001-01-01T00:00:14.533624,18,0,0
2001-01-01T00:00:14.550291,17,0,0
2001-01-01T00:00:14.566958,14,0,0
2001-01-01T00:00:14.583625,15,0,0
2001-01-01T00:00:14.600292,19,0,0
2001-01-01T00:00:14.616959,26,0,0
2001-01-01T00:00:14.633626,34,0,0
2001-01-01T00:00:14.650293,43,0,0
2001-01-01T00:00:14.666960,54,0,0
2001-01-01T00:00:14.683627,62,0,0
2001-01-01T00:00:14.700294,67,0,0
2001-01-01T00:00:14.716961,68,0,0
2001-01-01T00:00:14.733628,67,0,0
2001-01-01T00:00:14.750295,63,0,0
2001-01-01T00:00:14.766962,59,0,0
2001-01-01T00:00:14.783629,54,0,0
2001-01-01T00:00:14.800296,50,0,0
2001-01-01T00:00:14.816963,46,0,0
2001-01-01T00:00:14.833630,48,0,0
2001-01-01T00:00:14.850297,44,0,0
2001-01-01T00:00:14.866964,41,0,0
2001-01-01T00:00:14.883631,39,0,0
2001-01-01T00:00:14.900298,38,0,0
2001-01-01T00:00:14.916965,37,0,0
2001-01-01T00:00:14.933632,38,0,0
2001-01-01T00:00:14.950299,38,0,0
2001-01-01T00:00:14.966966,38,0,0
2001-01-01T00:00:14.983633,38,0,0
2001-01-01T00:00:15.000300,37,0,0
2001-01-01T00:00:15.016967,36,0,0
2001-01-01T00:00:15.033634,35,0,0
2001-01-01T00:00:15.050301,33,0,0
2001-01-01T00:00:15.066968,31,0,0
2001-01-01T00:00:15.083635,25,0,0
2001-01-01T00:00:15.100302,23,0,0
2001-01-01T00:00:15.116969,22,0,0
2001-01-01T00:00:15.133636,20,0,0
2001-01-01T00:00:15.150303,18,0,0
2001-01-01T00:00:15.166970,17,0,0
2001-01-01T00:00:15.183637,16,0,0
2001-01-01T00:00:15.200304,15,0,0
2001-01-01T00:00:15.216971,14,0,0
2001-01-01T00:00:15.233638,13,0,0
2001-01-01T00:00:15.250305,11,0,0
2001-01-01T00:00:15.266972,10,0,0
2001-01-01T00:00:15.283639,10,0,0
2001-01-01T00:00:15.300306,13,0,0
2001-01-01T00:00:15.316973,17,0,0
2001-01-01T00:00:15.333640,26,0,0
2001-01-01T00:00:15.350307,37,0,0
2001-01-01T00:00:15.366974,47,0,0
2001-01-01T00:00:15.383641,61,0,0
2001-01-01T00:00:15.400308,69,0,0
2001-01-01T00:00:15.416975,72,0,0
2001-01-01T00:00:15.433642,72,0,0
2001-01-01T00:00:15.450309,69,0,0
2001-01-01T00:00:15.466976,65,0,0
2001-01-01T00:00:15.483643,61,0,0
2001-01-01T00:00:15.500310,56,0,0
2001-01-01T00:00:15.516977,51,0,0
2001-01-01T00:00:15.533644,47,0,0
2001-01-01T00:00:15.550311,44,0,0
2001-01-01T00:00:15.566978,41,0,0
2001-01-01T00:00:15.583645,44,0,0
2001-01-01T00:00:15.600312,41,0,0
2001-01-01T00:00:15.616979,40,0,0
2001-01-01T00:00:15.633646,40,0,0
2001-01-01T00:00:15.650313,40,0,0
2001-01-01T00:00:15.666980,40,0,0
2001-01-01T00:00:15.683647,40,0,0
2001-01-01T00:00:15.700314,39,0,0
2001-01-01T00:00:15.716981,39,0,0
2001-01-01T00:00:15.733648,38,0,0
2001-01-01T00:00:15.750315,36,0,0
2001-01-01T00:00:15.766982,33,0,0
2001-01-01T00:00:15.783649,31,0,0
2001-01-01T00:00:15.800316,29,0,0
2001-01-01T00:00:15.816983,27,0,0
2001-01-01T00:00:15.833650,22,0,0
2001-01-01T00:00:15.850317,20,0,0
2001-01-01T00:00:15.866984,18,0,0
2001-01-01T00:00:15.883651,17,0,0
2001-01-01T00:00:15.900318,15,0,0
2001-01-01T00:00:15.916985,14,0,0
2001-01-01T00:00:15.933652,13,0,0
2001-01-01T00:00:15.950319,12,0,0
2001-01-01T00:00:15.966986,11,0,0
2001-01-01T00:00:15.983653,11,0,0
2001-01-01T00:00:16.000320,12,0,0
2001-01-01T00:00:16.016987,18,0,0
2001-01-01T00:00:16.033654,30,0,0
2001-01-01T00:00:16.050321,39,0,0
2001-01-01T00:00:16.066988,49,0,0
2001-01-01T00:00:16.083655,58,0,0
2001-01-01T00:00:16.100322,66,0,0
2001-01-01T00:00:16.116989,70,0,0
2001-01-01T00:00:16.133656,70,0,0
2001-01-01T00:00:16.150323,68,0,0
2001-01-01T00:00:16.166990,64,0,0
2001-01-01T00:00:16.183657,59,0,0
2001-01-01T00:00:16.200324,54,0,0
2001-01-01T00:00:16.216991,49,0,0
2001-01-01T00:00:16.233658,45,0,0
2001-01-01T00:00:16.250325,42,0,0
2001-01-01T00:00:16.266992,39,0,0
2001-01-01T00:00:16.283659,36,0,0
2001-01-01T00:00:16.300326,34,0,0
2001-01-01T00:00:16.316993,33,0,0
2001-01-01T00:00:16.333660,32,0,0
2001-01-01T00:00:16.350327,38,0,0
2001-01-01T00:00:16.366994,38,0,0
2001-01-01T00:00:16.383661,38,0,0
2001-01-01T00:00:16.400328,38,0,0
2001-01-01T00:00:16.416995,37,0,0
2001-01-01T00:00:16.433662,36,0,0
2001-01-01T00:00:16.450329,34,0,0
2001-01-01T00:00:16.466996,31,0,0
2001-01-01T00:00:16.483663,29,0,0
2001-01-01T00:00:16.500330,26,0,0
2001-01-01T00:00:16.516997,24,0,0
2001-01-01T00:00:16.533664,22,0,0
2001-01-01T00:00:16.550331,20,0,0
2001-01-01T00:00:16.566998,18,0,0
2001-01-01T00:00:16.583665,17,0,0
2001-01-01T00:00:16.600332,12,0,0
2001-01-01T00:00:16.616999,11,0,0
2001-01-01T00:00:16.633666,10,0,0
2001-01-01T00:00:16.650333,9,0,0
2001-01-01T00:00:16.667000,9,0,0
2001-01-01T00:00:16.683667,8,0,0
2001-01-01T00:00:16.700334,9,0,0
2001-01-01T00:00:16.717001,14,0,0
2001-01-01T00:00:16.733668,19,0,0
2001-01-01T00:00:16.750335,29,0,0
2001-01-01T00:00:16.767002,40,0,0
2001-01-01T00:00:16.783669,49,0,0
2001-01-01T00:00:16.800336,62,0,0
2001-01-01T00:00:16.817003,67,0,0
2001-01-01T00:00:16.833670,68,0,0
2001-01-01T00:00:16.850337,66,0,0
2001-01-01T00:00:16.867004,61,0,0
2001-01-01T00:00:16.883671,56,0,0
2001-01-01T00:00:16.900338,50,0,0
2001-01-01T00:00:16.917005,45,0,0
2001-01-01T00:00:16.933672,40,0,0
2001-01-01T00:00:16.950339,37,0,0
2001-01-01T00:00:16.967006,33,0,0
2001-01-01T00:00:16.983673,31,0,0
2001-01-01T00:00:17.000340,29,0,0
2001-01-01T00:00:17.017007,28,0,0
2001-01-01T00:00:17.033674,28,0,0
2001-01-01T00:00:17.050341,29,0,0
2001-01-01T00:00:17.067008,30,0,0
2001-01-01T00:00:17.083675,31,0,0
2001-01-01T00:00:17.100342,37,0,0
2001-01-01T00:00:17.117009,36,0,0
2001-01-01T00:00:17.133676,35,0,0
2001-01-01T00:00:17.150343,34,0,0
2001-01-01T00:00:17.167010,32,0,0
2001-01-01T00:00:17.183677,30,0,0
2001-01-01T00:00:17.200344,27,0,0
2001-01-01T00:00:17.217011,25,0,0
2001-01-01T00:00:17.233678,23,0,0
2001-01-01T00:00:17.250345,21,0,0
2001-01-01T00:00:17.267012,19,0,0
2001-01-01T00:00:17.283679,18,0,0
2001-01-01T00:00:17.300346,16,0,0
2001-01-01T00:00:17.317013,14,0,0
2001-01-01T00:00:17.333680,13,0,0
2001-01-01T00:00:17.350347,9,0,0
2001-01-01T00:00:17.367014,8,0,0
2001-01-01T00:00:17.383681,10,0,0
2001-01-01T00:00:17.400348,14,0,0
2001-01-01T00:00:17.417015,20,0,0
2001-01-01T00:00:17.433682,30,0,0
2001-01-01T00:00:17.450349,40,0,0
2001-01-01T00:00:17.467016,51,0,0
2001-01-01T00:00:17.483683,59,0,0
2001-01-01T00:00:17.500350,62,0,0
2001-01-01T00:00:17.517017,63,0,0
2001-01-01T00:00:17.533684,61,0,0
2001-01-01T00:00:17.550351,60,0,0
2001-01-01T00:00:17.567018,54,0,0
2001-01-01T00:00:17.583685,48,0,0
2001-01-01T00:00:17.600352,43,0,0
2001-01-01T00:00:17.617019,40,0,0
2001-01-01T00:00:17.633686,35,0,0
2001-01-01T00:00:17.650353,33,0,0
2001-01-01T00:00:17.667020,31,0,0
2001-01-01T00:00:17.683687,30,0,0
2001-01-01T00:00:17.700354,30,0,0
2001-01-01T00:00:17.717021,31,0,0
2001-01-01T00:00:17.733688,32,0,0
2001-01-01T00:00:17.750355,33,0,0
2001-01-01T00:00:17.767022,34,0,0
2001-01-01T00:00:17.783689,35,0,0
2001-01-01T00:00:17.800356,34,0,0
2001-01-01T00:00:17.817023,33,0,0
2001-01-01T00:00:17.833690,31,0,0
2001-01-01T00:00:17.850357,29,0,0
2001-01-01T00:00:17.867024,32,0,0
2001-01-01T00:00:17.883691,30,0,0
2001-01-01T00:00:17.900358,28,0,0
2001-01-01T00:00:17.917025,26,0,0
2001-01-01T00:00:17.933692,24,0,0
2001-01-01T00:00:17.950359,22,0,0
2001-01-01T00:00:17.967026,21,0,0
2001-01-01T00:00:17.983693,19,0,0
2001-01-01T00:00:18.000360,18,0,0
2001-01-01T00:00:18.017027,16,0,0
2001-01-01T00:00:18.033694,15,0,0
2001-01-01T00:00:18.050361,16,0,0
2001-01-01T00:00:18.067028,20,0,0
2001-01-01T00:00:18.083695,27,0,0
2001-01-01T00:00:18.100362,36,0,0
2001-01-01T00:00:18.117029,46,0,0
2001-01-01T00:00:18.133696,57,0,0
2001-01-01T00:00:18.150363,65,0,0
2001-01-01T00:00:18.167030,71,0,0
2001-01-01T00:00:18.183697,72,0,0
2001-01-01T00:00:18.200364,70,0,0
2001-01-01T00:00:18.217031,63,0,0
2001-01-01T00:00:18.233698,58,0,0
2001-01-01T00:00:18.250365,54,0,0
2001-01-01T00:00:18.267032,49,0,0
2001-01-01T00:00:18.283699,45,0,0
2001-01-01T00:00:18.300366,41,0,0
2001-01-01T00:00:18.317033,39,0,0
2001-01-01T00:00:18.333700,36,0,0
2001-01-01T00:00:18.350367,33,0,0
2001-01-01T00:00:18.367034,32,0,0
2001-01-01T00:00:18.383701,32,0,0
2001-01-01T00:00:18.400368,33,0,0
2001-01-01T00:00:18.417035,37,0,0
2001-01-01T00:00:18.433702,38,0,0
2001-01-01T00:00:18.450369,39,0,0
2001-01-01T00:00:18.467036,39,0,0
2001-01-01T00:00:18.483703,38,0,0
2001-01-01T00:00:18.500370,37,0,0
2001-01-01T00:00:18.517037,35,0,0
2001-01-01T00:00:18.533704,33,0,0
2001-01-01T00:00:18.550371,30,0,0
2001-01-01T00:00:18.567038,28,0,0
2001-01-01T00:00:18.583705,26,0,0
2001-01-01T00:00:18.600372,24,0,0
2001-01-01T00:00:18.617039,28,0,0
2001-01-01T00:00:18.633706,25,0,0
2001-01-01T00:00:18.650373,24,0,0
2001-01-01T00:00:18.667040,22,0,0
2001-01-01T00:00:18.683707,21,0,0
2001-01-01T00:00:18.700374,21,0,0
2001-01-01T00:00:18.717041,23,0,0
2001-01-01T00:00:18.733708,28,0,0
2001-01-01T00:00:18.750375,36,0,0
2001-01-01T00:00:18.767042,46,0,0
2001-01-01T00:00:18.783709,56,0,0
2001-01-01T00:00:18.800376,67,0,0
2001-01-01T00:00:18.817043,74,0,0
2001-01-01T00:00:18.833710,77,0,0
2001-01-01T00:00:18.850377,77,0,0
2001-01-01T00:00:18.867044,72,0,0
2001-01-01T00:00:18.883711,68,0,0
2001-01-01T00:00:18.900378,63,0,0
2001-01-01T00:00:18.917045,59,0,0
2001-01-01T00:00:18.933712,55,0,0
2001-01-01T00:00:18.950379,51,0,0
2001-01-01T00:00:18.967046,48,0,0
2001-01-01T00:00:18.983713,45,0,0
2001-01-01T00:00:19.000380,42,0,0
2001-01-01T00:00:19.017047,39,0,0
2001-01-01T00:00:19.033714,39,0,0
2001-01-01T00:00:19.050381,39,0,0
2001-01-01T00:00:19.067048,42,0,0
2001-01-01T00:00:19.083715,43,0,0
2001-01-01T00:00:19.100382,43,0,0
2001-01-01T00:00:19.117049,44,0,0
2001-01-01T00:00:19.133716,43,0,0
2001-01-01T00:00:19.150383,42,0,0
2001-01-01T00:00:19.167050,41,0,0
2001-01-01T00:00:19.183717,39,0,0
2001-01-01T00:00:19.200384,37,0,0
2001-01-01T00:00:19.217051,35,0,0
2001-01-01T00:00:19.233718,33,0,0
2001-01-01T00:00:19.250385,31,0,0
2001-01-01T00:00:19.267052,29,0,0
2001-01-01T00:00:19.283719,27,0,0
2001-01-01T00:00:19.300386,25,0,0
2001-01-01T00:00:19.317053,23,0,0
2001-01-01T00:00:19.333720,21,0,0
2001-01-01T00:00:19.350387,20,0,0
2001-01-01T00:00:19.367054,21,0,0
2001-01-01T00:00:19.383721,31,0,0
2001-01-01T00:00:19.400388,38,0,0
2001-01-01T00:00:19.417055,47,0,0
2001-01-01T00:00:19.433722,57,0,0
2001-01-01T00:00:19.450389,68,0,0
2001-01-01T00:00:19.467056,76,0,0
2001-01-01T00:00:19.483723,81,0,0
2001-01-01T00:00:19.500390,82,0,0
2001-01-01T00:00:19.517057,80,0,0
2001-01-01T00:00:19.533724,76,0,0
2001-01-01T00:00:19.550391,72,0,0
2001-01-01T00:00:19.567058,67,0,0
2001-01-01T00:00:19.583725,63,0,0
2001-01-01T00:00:19.600392,58,0,0
2001-01-01T00:00:19.617059,55,0,0
2001-01-01T00:00:19.633726,49,0,0
2001-01-01T00:00:19.650393,46,0,0
2001-01-01T00:00:19.667060,45,0,0
2001-01-01T00:00:19.683727,43,0,0
2001-01-01T00:00:19.700394,43,0,0
2001-01-01T00:00:19.717061,44,0,0
2001-01-01T00:00:19.733728,44,0,0
2001-01-01T00:00:19.750395,45,0,0
2001-01-01T00:00:19.767062,46,0,0
2001-01-01T00:00:19.783729,46,0,0
2001-01-01T00:00:19.800396,44,0,0
2001-01-01T00:00:19.817063,42,0,0
2001-01-01T00:00:19.833730,40,0,0
2001-01-01T00:00:19.850397,38,0,0
2001-01-01T00:00:19.867064,34,0,0
2001-01-01T00:00:19.883731,32,0,0
2001-01-01T00:00:19.900398,31,0,0
2001-01-01T00:00:19.917065,29,0,0
2001-01-01T00:00:19.933732,30,0,0
2001-01-01T00:00:19.950399,29,0,0
2001-01-01T00:00:19.967066,27,0,0
2001-01-01T00:00:19.983733,25,0,0
2001-01-01T00:00:20.000400,26,0,0
2001-01-01T00:00:20.017067,24,0,0
2001-01-01T00:00:20.033734,21,0,0
2001-01-01T00:00:20.050401,18,0,0
2001-01-01T00:00:20.067068,17,0,0
2001-01-01T00:00:20.083735,16,0,0
2001-01-01T00:00:20.100402,19,0,0
2001-01-01T00:00:20.117069,25,0,0
2001-01-01T00:00:20.133736,35,0,0
2001-01-01T00:00:20.150403,44,0,0
2001-01-01T00:00:20.167070,55,0,0
2001-01-01T00:00:20.183737,63,0,0
2001-01-01T00:00:20.200404,71,0,0
2001-01-01T00:00:20.217071,75,0,0
2001-01-01T00:00:20.233738,74,0,0
2001-01-01T00:00:20.250405,72,0,0
2001-01-01T00:00:20.267072,68,0,0
2001-01-01T00:00:20.283739,64,0,0
2001-01-01T00:00:20.300406,59,0,0
2001-01-01T00:00:20.317073,55,0,0
2001-01-01T00:00:20.333740,52,0,0
2001-01-01T00:00:20.350407,48,0,0
2001-01-01T00:00:20.367074,45,0,0
2001-01-01T00:00:20.383741,46,0,0
2001-01-01T00:00:20.400408,43,0,0
2001-01-01T00:00:20.417075,42,0,0
2001-01-01T00:00:20.433742,40,0,0
2001-01-01T00:00:20.450409,40,0,0
2001-01-01T00:00:20.467076,40,0,0
2001-01-01T00:00:20.483743,40,0,0
2001-01-01T00:00:20.500410,40,0,0
2001-01-01T00:00:20.517077,40,0,0
2001-01-01T00:00:20.533744,39,0,0
2001-01-01T00:00:20.550411,37,0,0
2001-01-01T00:00:20.567078,35,0,0
2001-01-01T00:00:20.583745,33,0,0
2001-01-01T00:00:20.600412,30,0,0
2001-01-01T00:00:20.617079,28,0,0
2001-01-01T00:00:20.633746,26,0,0
2001-01-01T00:00:20.650413,24,0,0
2001-01-01T00:00:20.667080,22,0,0
2001-01-01T00:00:20.683747,20,0,0
2001-01-01T00:00:20.700414,24,0,0
2001-01-01T00:00:20.717081,22,0,0
2001-01-01T00:00:20.733748,22,0,0
2001-01-01T00:00:20.750415,24,0,0
2001-01-01T00:00:20.767082,31,0,0
2001-01-01T00:00:20.783749,40,0,0
2001-01-01T00:00:20.800416,50,0,0
2001-01-01T00:00:20.817083,60,0,0
2001-01-01T00:00:20.833750,70,0,0
2001-01-01T00:00:20.850417,75,0,0
2001-01-01T00:00:20.867084,78,0,0
2001-01-01T00:00:20.883751,77,0,0
2001-01-01T00:00:20.900418,74,0,0
2001-01-01T00:00:20.917085,69,0,0
2001-01-01T00:00:20.933752,65,0,0
2001-01-01T00:00:20.950419,58,0,0
2001-01-01T00:00:20.967086,54,0,0
2001-01-01T00:00:20.983753,50,0,0
2001-01-01T00:00:21.000420,47,0,0
2001-01-01T00:00:21.017087,44,0,0
2001-01-01T00:00:21.033754,42,0,0
2001-01-01T00:00:21.050421,40,0,0
2001-01-01T00:00:21.067088,40,0,0
2001-01-01T00:00:21.083755,40,0,0
2001-01-01T00:00:21.100422,40,0,0
2001-01-01T00:00:21.117089,40,0,0
2001-01-01T00:00:21.133756,40,0,0
2001-01-01T00:00:21.150423,43,0,0
2001-01-01T00:00:21.167090,42,0,0
2001-01-01T00:00:21.183757,39,0,0
2001-01-01T00:00:21.200424,38,0,0
2001-01-01T00:00:21.217091,35,0,0
2001-01-01T00:00:21.233758,33,0,0
2001-01-01T00:00:21.250425,31,0,0
2001-01-01T00:00:21.267092,28,0,0
2001-01-01T00:00:21.283759,27,0,0
2001-01-01T00:00:21.300426,25,0,0
2001-01-01T00:00:21.317093,23,0,0
2001-01-01T00:00:21.333760,22,0,0
2001-01-01T00:00:21.350427,20,0,0
2001-01-01T00:00:21.367094,18,0,0
2001-01-01T00:00:21.383761,17,0,0
2001-01-01T00:00:21.400428,16,0,0
2001-01-01T00:00:21.417095,18,0,0
2001-01-01T00:00:21.433762,22,0,0
2001-01-01T00:00:21.450429,36,0,0
2001-01-01T00:00:21.467096,44,0,0
2001-01-01T00:00:21.483763,55,0,0
2001-01-01T00:00:21.500430,65,0,0
2001-01-01T00:00:21.517097,72,0,0
2001-01-01T00:00:21.533764,76,0,0
2001-01-01T00:00:21.550431,76,0,0
2001-01-01T00:00:21.567098,73,0,0
2001-01-01T00:00:21.583765,69,0,0
2001-01-01T00:00:21.600432,62,0,0
2001-01-01T00:00:21.617099,58,0,0
2001-01-01T00:00:21.633766,54,0,0
2001-01-01T00:00:21.650433,51,0,0
2001-01-01T00:00:21.667100,47,0,0
2001-01-01T00:00:21.683767,44,0,0
2001-01-01T00:00:21.700434,42,0,0
2001-01-01T00:00:21.717101,40,0,0
2001-01-01T00:00:21.733768,40,0,0
2001-01-01T00:00:21.750435,39,0,0
2001-01-01T00:00:21.767102,39,0,0
2001-01-01T00:00:21.783769,40,0,0
2001-01-01T00:00:21.800436,40,0,0
2001-01-01T00:00:21.817103,40,0,0
2001-01-01T00:00:21.833770,39,0,0
2001-01-01T00:00:21.850437,37,0,0
2001-01-01T00:00:21.867104,36,0,0
2001-01-01T00:00:21.883771,34,0,0
2001-01-01T00:00:21.900438,35,0,0
2001-01-01T00:00:21.917105,33,0,0
2001-01-01T00:00:21.933772,31,0,0
2001-01-01T00:00:21.950439,27,0,0
2001-01-01T00:00:21.967106,25,0,0
2001-01-01T00:00:21.983773,23,0,0
2001-01-01T00:00:22.000440,22,0,0
2001-01-01T00:00:22.017107,20,0,0
2001-01-01T00:00:22.033774,19,0,0
2001-01-01T00:00:22.050441,18,0,0
2001-01-01T00:00:22.067108,16,0,0
2001-01-01T00:00:22.083775,15,0,0
2001-01-01T00:00:22.100442,14,0,0
2001-01-01T00:00:22.117109,13,0,0
2001-01-01T00:00:22.133776,14,0,0
2001-01-01T00:00:22.150443,18,0,0
2001-01-01T00:00:22.167110,25,0,0
2001-01-01T00:00:22.183777,34,0,0
2001-01-01T00:00:22.200444,44,0,0
2001-01-01T00:00:22.217111,60,0,0
2001-01-01T00:00:22.233778,68,0,0
2001-01-01T00:00:22.250445,73,0,0
2001-01-01T00:00:22.267112,73,0,0
2001-01-01T00:00:22.283779,71,0,0
2001-01-01T00:00:22.300446,68,0,0
2001-01-01T00:00:22.317113,63,0,0
2001-01-01T00:00:22.333780,58,0,0
2001-01-01T00:00:22.350447,54,0,0
2001-01-01T00:00:22.367114,49,0,0
2001-01-01T00:00:22.383781,46,0,0
2001-01-01T00:00:22.400448,43,0,0
2001-01-01T00:00:22.417115,40,0,0
2001-01-01T00:00:22.433782,39,0,0
2001-01-01T00:00:22.450449,38,0,0
2001-01-01T00:00:22.467116,35,0,0
2001-01-01T00:00:22.483783,35,0,0
2001-01-01T00:00:22.500450,36,0,0
2001-01-01T00:00:22.517117,36,0,0
2001-01-01T00:00:22.533784,36,0,0
2001-01-01T00:00:22.550451,36,0,0
2001-01-01T00:00:22.567118,35,0,0
2001-01-01T00:00:22.583785,33,0,0
2001-01-01T00:00:22.600452,31,0,0
2001-01-01T00:00:22.617119,29,0,0
2001-01-01T00:00:22.633786,27,0,0
2001-01-01T00:00:22.650453,25,0,0
2001-01-01T00:00:22.667120,27,0,0
2001-01-01T00:00:22.683787,25,0,0
2001-01-01T00:00:22.700454,22,0,0
2001-01-01T00:00:22.717121,21,0,0
2001-01-01T00:00:22.733788,20,0,0
2001-01-01T00:00:22.750455,19,0,0
2001-01-01T00:00:22.767122,17,0,0
2001-01-01T00:00:22.783789,16,0,0
2001-01-01T00:00:22.800456,15,0,0
2001-01-01T00:00:22.817123,15,0,0
2001-01-01T00:00:22.833790,14,0,0
2001-01-01T00:00:22.850457,13,0,0
2001-01-01T00:00:22.867124,14,0,0
2001-01-01T00:00:22.883791,17,0,0
2001-01-01T00:00:22.900458,23,0,0
2001-01-01T00:00:22.917125,31,0,0
2001-01-01T00:00:22.933792,41,0,0
2001-01-01T00:00:22.950459,51,0,0
2001-01-01T00:00:22.967126,60,0,0
2001-01-01T00:00:22.983793,65,0,0
2001-01-01T00:00:23.000460,67,0,0
2001-01-01T00:00:23.017127,65,0,0
2001-01-01T00:00:23.033794,61,0,0
2001-01-01T00:00:23.050461,56,0,0
2001-01-01T00:00:23.067128,56,0,0
2001-01-01T00:00:23.083795,51,0,0
2001-01-01T00:00:23.100462,47,0,0
2001-01-01T00:00:23.117129,44,0,0
2001-01-01T00:00:23.133796,41,0,0
2001-01-01T00:00:23.150463,40,0,0
2001-01-01T00:00:23.167130,38,0,0
2001-01-01T00:00:23.183797,37,0,0
2001-01-01T00:00:23.200464,37,0,0
2001-01-01T00:00:23.217131,34,0,0
2001-01-01T00:00:23.233798,35,0,0
2001-01-01T00:00:23.250465,36,0,0
2001-01-01T00:00:23.267132,36,0,0
2001-01-01T00:00:23.283799,36,0,0
2001-01-01T00:00:23.300466,34,0,0
2001-01-01T00:00:23.317133,33,0,0
2001-01-01T00:00:23.333800,31,0,0
2001-01-01T00:00:23.350467,29,0,0
2001-01-01T00:00:23.367134,27,0,0
2001-01-01T00:00:23.383801,25,0,0
2001-01-01T00:00:23.400468,24,0,0
2001-01-01T00:00:23.417135,22,0,0
2001-01-01T00:00:23.433802,21,0,0
2001-01-01T00:00:23.450469,20,0,0
2001-01-01T00:00:23.467136,19,0,0
2001-01-01T00:00:23.483803,17,0,0
2001-01-01T00:00:23.500470,16,0,0
2001-01-01T00:00:23.517137,19,0,0
2001-01-01T00:00:23.533804,18,0,0
2001-01-01T00:00:23.550471,17,0,0
2001-01-01T00:00:23.567138,14,0,0
2001-01-01T00:00:23.583805,15,0,0
2001-01-01T00:00:23.600472,19,0,0
2001-01-01T00:00:23.617139,26,0,0
2001-01-01T00:00:23.633806,34,0,0
2001-01-01T00:00:23.650473,43,0,0
2001-01-01T00:00:23.667140,54,0,0
2001-01-01T00:00:23.683807,62,0,0
2001-01-01T00:00:23.700474,67,0,0
2001-01-01T00:00:23.717141,68,0,0
2001-01-01T00:00:23.733808,67,0,0
2001-01-01T00:00:23.750475,63,0,0
2001-01-01T00:00:23.767142,59,0,0
2001-01-01T00:00:23.783809,54,0,0
2001-01-01T00:00:23.800476,50,0,0
2001-01-01T00:00:23.817143,46,0,0
2001-01-01T00:00:23.833810,48,0,0
2001-01-01T00:00:23.850477,44,0,0
2001-01-01T00:00:23.867144,41,0,0
2001-01-01T00:00:23.883811,39,0,0
2001-01-01T00:00:23.900478,38,0,0
2001-01-01T00:00:23.917145,37,0,0
2001-01-01T00:00:23.933812,38,0,0
2001-01-01T00:00:23.950479,38,0,0
2001-01-01T00:00:23.967146,38,0,0
2001-01-01T00:00:23.983813,38,0,0
2001-01-01T00:00:24.000480,37,0,0
2001-01-01T00:00:24.017147,36,0,0
2001-01-01T00:00:24.033814,35,0,0
2001-01-01T00:00:24.050481,33,0,0
2001-01-01T00:00:24.067148,31,0,0
2001-01-01T00:00:24.083815,25,0,0
2001-01-01T00:00:24.100482,23,0,0
2001-01-01T00:00:24.117149,22,0,0
2001-01-01T00:00:24.133816,20,0,0
2001-01-01T00:00:24.150483,18,0,0
2001-01-01T00:00:24.167150,17,0,0
2001-01-01T00:00:24.183817,16,0,0
2001-01-01T00:00:24.200484,15,0,0
2001-01-01T00:00:24.217151,14,0,0
2001-01-01T00:00:24.233818,13,0,0
2001-01-01T00:00:24.250485,11,0,0
2001-01-01T00:00:24.267152,10,0,0
2001-01-01T00:00:24.283819,10,0,0
2001-01-01T00:00:24.300486,13,0,0
2001-01-01T00:00:24.317153,17,0,0
2001-01-01T00:00:24.333820,26,0,0
2001-01-01T00:00:24.350487,37,0,0
2001-01-01T00:00:24.367154,47,0,0
2001-01-01T00:00:24.383821,61,0,0
2001-01-01T00:00:24.400488,69,0,0
2001-01-01T00:00:24.417155,72,0,0
2001-01-01T00:00:24.433822,72,0,0
2001-01-01T00:00:24.450489,69,0,0
2001-01-01T00:00:24.467156,65,0,0
2001-01-01T00:00:24.483823,61,0,0
2001-01-01T00:00:24.500490,56,0,0
2001-01-01T00:00:24.517157,51,0,0
2001-01-01T00:00:24.533824,47,0,0
2001-01-01T00:00:24.550491,44,0,0
2001-01-01T00:00:24.567158,41,0,0
2001-01-01T00:00:24.583825,44,0,0
2001-01-01T00:00:24.600492,41,0,0
2001-01-01T00:00:24.617159,40,0,0
2001-01-01T00:00:24.633826,40,0,0
2001-01-01T00:00:24.650493,40,0,0
2001-01-01T00:00:24.667160,40,0,0
2001-01-01T00:00:24.683827,40,0,0
2001-01-01T00:00:24.700494,39,0,0
2001-01-01T00:00:24.717161,39,0,0
2001-01-01T00:00:24.733828,38,0,0
2001-01-01T00:00:24.750495,36,0,0
2001-01-01T00:00:24.767162,33,0,0
2001-01-01T00:00:24.783829,31,0,0
2001-01-01T00:00:24.800496,29,0,0
2001-01-01T00:00:24.817163,27,0,0
2001-01-01T00:00:24.833830,22,0,0
2001-01-01T00:00:24.850497,20,0,0
2001-01-01T00:00:24.867164,18,0,0
2001-01-01T00:00:24.883831,17,0,0
2001-01-01T00:00:24.900498,15,0,0
2001-01-01T00:00:24.917165,14,0,0
2001-01-01T00:00:24.933832,13,0,0
2001-01-01T00:00:24.950499,12,0,0
2001-01-01T00:00:24.967166,11,0,0
2001-01-01T00:00:24.983833,11,0,0
2001-01-01T00:00:25.000500,12,0,0
2001-01-01T00:00:25.017167,18,0,0
2001-01-01T00:00:25.033834,30,0,0
2001-01-01T00:00:25.050501,39,0,0
2001-01-01T00:00:25.067168,49,0,0
2001-01-01T00:00:25.083835,58,0,0
2001-01-01T00:00:25.100502,66,0,0
2001-01-01T00:00:25.117169,70,0,0
2001-01-01T00:00:25.133836,70,0,0
2001-01-01T00:00:25.150503,68,0,0
2001-01-01T00:00:25.167170,64,0,0
2001-01-01T00:00:25.183837,59,0,0
2001-01-01T00:00:25.200504,54,0,0
2001-01-01T00:00:25.217171,49,0,0
2001-01-01T00:00:25.233838,45,0,0
2001-01-01T00:00:25.250505,42,0,0
2001-01-01T00:00:25.267172,39,0,0
2001-01-01T00:00:25.283839,36,0,0
2001-01-01T00:00:25.300506,34,0,0
2001-01-01T00:00:25.317173,33,0,0
2001-01-01T00:00:25.333840,32,0,0
2001-01-01T00:00:25.350507,38,0,0
2001-01-01T00:00:25.367174,38,0,0
2001-01-01T00:00:25.383841,38,0,0
2001-01-01T00:00:25.400508,38,0,0
2001-01-01T00:00:25.417175,37,0,0
2001-01-01T00:00:25.433842,36,0,0
2001-01-01T00:00:25.450509,34,0,0
2001-01-01T00:00:25.467176,31,0,0
2001-01-01T00:00:25.483843,29,0,0
2001-01-01T00:00:25.500510,26,0,0
2001-01-01T00:00:25.517177,24,0,0
2001-01-01T00:00:25.533844,22,0,0
2001-01-01T00:00:25.550511,20,0,0
2001-01-01T00:00:25.567178,18,0,0
2001-01-01T00:00:25.583845,17,0,0
2001-01-01T00:00:25.600512,12,0,0
2001-01-01T00:00:25.617179,11,0,0
2001-01-01T00:00:25.633846,10,0,0
2001-01-01T00:00:25.650513,9,0,0
2001-01-01T00:00:25.667180,9,0,0
2001-01-01T00:00:25.683847,8,0,0
2001-01-01T00:00:25.700514,9,0,0
2001-01-01T00:00:25.717181,14,0,0
2001-01-01T00:00:25.733848,19,0,0
2001-01-01T00:00:25.750515,29,0,0
2001-01-01T00:00:25.767182,40,0,0
2001-01-01T00:00:25.783849,49,0,0
2001-01-01T00:00:25.800516,62,0,0
2001-01-01T00:00:25.817183,67,0,0
2001-01-01T00:00:25.833850,68,0,0
2001-01-01T00:00:25.850517,66,0,0
2001-01-01T00:00:25.867184,61,0,0
2001-01-01T00:00:25.883851,56,0,0
2001-01-01T00:00:25.900518,50,0,0
2001-01-01T00:00:25.917185,45,0,0
2001-01-01T00:00:25.933852,40,0,0
2001-01-01T00:00:25.950519,37,0,0
2001-01-01T00:00:25.967186,33,0,0
2001-01-01T00:00:25.983853,31,0,0
2001-01-01T00:00:26.000520,29,0,0
2001-01-01T00:00:26.017187,28,0,0
2001-01-01T00:00:26.033854,28,0,0
2001-01-01T00:00:26.050521,29,0,0
2001-01-01T00:00:26.067188,30,0,0
2001-01-01T00:00:26.083855,31,0,0
2001-01-01T00:00:26.100522,37,0,0
2001-01-01T00:00:26.117189,36,0,0
2001-01-01T00:00:26.133856,35,0,0
2001-01-01T00:00:26.150523,34,0,0
2001-01-01T00:00:26.167190,32,0,0
2001-01-01T00:00:26.183857,30,0,0
2001-01-01T00:00:26.200524,27,0,0
2001-01-01T00:00:26.217191,25,0,0
2001-01-01T00:00:26.233858,23,0,0
2001-01-01T00:00:26.250525,21,0,0
2001-01-01T00:00:26.267192,19,0,0
2001-01-01T00:00:26.283859,18,0,0
2001-01-01T00:00:26.300526,16,0,0
2001-01-01T00:00:26.317193,14,0,0
2001-01-01T00:00:26.333860,13,0,0
2001-01-01T00:00:26.350527,9,0,0
2001-01-01T00:00:26.367194,8,0,0
2001-01-01T00:00:26.383861,10,0,0
2001-01-01T00:00:26.400528,14,0,0
2001-01-01T00:00:26.417195,20,0,0
2001-01-01T00:00:26.433862,30,0,0
2001-01-01T00:00:26.450529,40,0,0
2001-01-01T00:00:26.467196,51,0,0
2001-01-01T00:00:26.483863,59,0,0
2001-01-01T00:00:26.500530,62,0,0
2001-01-01T00:00:26.517197,63,0,0
2001-01-01T00:00:26.533864,61,0,0
2001-01-01T00:00:26.550531,60,0,0
2001-01-01T00:00:26.567198,54,0,0
2001-01-01T00:00:26.583865,48,0,0
2001-01-01T00:00:26.600532,43,0,0
2001-01-01T00:00:26.617199,40,0,0
2001-01-01T00:00:26.633866,35,0,0
2001-01-01T00:00:26.650533,33,0,0
2001-01-01T00:00:26.667200,31,0,0
2001-01-01T00:00:26.683867,30,0,0
2001-01-01T00:00:26.700534,30,0,0
2001-01-01T00:00:26.717201,31,0,0
2001-01-01T00:00:26.733868,32,0,0
2001-01-01T00:00:26.750535,33,0,0
2001-01-01T00:00:26.767202,34,0,0
2001-01-01T00:00:26.783869,35,0,0
2001-01-01T00:00:26.800536,34,0,0
2001-01-01T00:00:26.817203,33,0,0
2001-01-01T00:00:26.833870,31,0,0
2001-01-01T00:00:26.850537,29,0,0
2001-01-01T00:00:26.867204,32,0,0
2001-01-01T00:00:26.883871,30,0,0
2001-01-01T00:00:26.900538,28,0,0
2001-01-01T00:00:26.917205,26,0,0
2001-01-01T00:00:26.933872,24,0,0
2001-01-01T00:00:26.950539,22,0,0
2001-01-01T00:00:26.967206,21,0,0
2001-01-01T00:00:26.983873,19,0,0
2001-01-01T00:00:27.000540,18,0,0
2001-01-01T00:00:27.017207,16,0,0
2001-01-01T00:00:27.033874,15,0,0
2001-01-01T00:00:27.050541,16,0,0
2001-01-01T00:00:27.067208,20,0,0
2001-01-01T00:00:27.083875,27,0,0
2001-01-01T00:00:27.100542,36,0,0
2001-01-01T00:00:27.117209,46,0,0
2001-01-01T00:00:27.133876,57,0,0
2001-01-01T00:00:27.150543,65,0,0
2001-01-01T00:00:27.167210,71,0,0
2001-01-01T00:00:27.183877,72,0,0
2001-01-01T00:00:27.200544,70,0,0
2001-01-01T00:00:27.217211,63,0,0
2001-01-01T00:00:27.233878,58,0,0
2001-01-01T00:00:27.250545,54,0,0
2001-01-01T00:00:27.267212,49,0,0
2001-01-01T00:00:27.283879,45,0,0
2001-01-01T00:00:27.300546,41,0,0
2001-01-01T00:00:27.317213,39,0,0
2001-01-01T00:00:27.333880,36,0,0
2001-01-01T00:00:27.350547,33,0,0
2001-01-01T00:00:27.367214,32,0,0
2001-01-01T00:00:27.383881,32,0,0
2001-01-01T00:00:27.400548,33,0,0
2001-01-01T00:00:27.417215,37,0,0
2001-01-01T00:00:27.433882,38,0,0
2001-01-01T00:00:27.450549,39,0,0
2001-01-01T00:00:27.467216,39,0,0
2001-01-01T00:00:27.483883,38,0,0
2001-01-01T00:00:27.500550,37,0,0
2001-01-01T00:00:27.517217,35,0,0
2001-01-01T00:00:27.533884,33,0,0
2001-01-01T00:00:27.550551,30,0,0
2001-01-01T00:00:27.567218,28,0,0
2001-01-01T00:00:27.583885,26,0,0
2001-01-01T00:00:27.600552,24,0,0
2001-01-01T00:00:27.617219,28,0,0
2001-01-01T00:00:27.633886,25,0,0
2001-01-01T00:00:27.650553,24,0,0
2001-01-01T00:00:27.667220,22,0,0
2001-01-01T00:00:27.683887,21,0,0
2001-01-01T00:00:27.700554,21,0,0
2001-01-01T00:00:27.717221,23,0,0
2001-01-01T00:00:27.733888,28,0,0
2001-01-01T00:00:27.750555,36,0,0
2001-01-01T00:00:27.767222,46,0,0
2001-01-01T00:00:27.783889,56,0,0
2001-01-01T00:00:27.800556,67,0,0
2001-01-01T00:00:27.817223,74,0,0
2001-01-01T00:00:27.833890,77,0,0
2001-01-01T00:00:27.850557,77,0,0
2001-01-01T00:00:27.867224,72,0,0
2001-01-01T00:00:27.883891,68,0,0
2001-01-01T00:00:27.900558,63,0,0
2001-01-01T00:00:27.917225,59,0,0
2001-01-01T00:00:27.933892,55,0,0
2001-01-01T00:00:27.950559,51,0,0
2001-01-01T00:00:27.967226,48,0,0
2001-01-01T00:00:27.983893,45,0,0
2001-01-01T00:00:28.000560,42,0,0
2001-01-01T00:00:28.017227,39,0,0
2001-01-01T00:00:28.033894,39,0,0
2001-01-01T00:00:28.050561,39,0,0
2001-01-01T00:00:28.067228,42,0,0
2001-01-01T00:00:28.083895,43,0,0
2001-01-01T00:00:28.100562,43,0,0
2001-01-01T00:00:28.117229,44,0,0
2001-01-01T00:00:28.133896,43,0,0
2001-01-01T00:00:28.150563,42,0,0
2001-01-01T00:00:28.167230,41,0,0
2001-01-01T00:00:28.183897,39,0,0
2001-01-01T00:00:28.200564,37,0,0
2001-01-01T00:00:28.217231,35,0,0
2001-01-01T00:00:28.233898,33,0,0
2001-01-01T00:00:28.250565,31,0,0
2001-01-01T00:00:28.267232,29,0,0
2001-01-01T00:00:28.283899,27,0,0
2001-01-01T00:00:28.300566,25,0,0
2001-01-01T00:00:28.317233,23,0,0
2001-01-01T00:00:28.333900,21,0,0
2001-01-01T00:00:28.350567,20,0,0
2001-01-01T00:00:28.367234,21,0,0
2001-01-01T00:00:28.383901,31,0,0
2001-01-01T00:00:28.400568,38,0,0
2001-01-01T00:00:28.417235,47,0,0
2001-01-01T00:00:28.433902,57,0,0
2001-01-01T00:00:28.450569,68,0,0
2001-01-01T00:00:28.467236,76,0,0
2001-01-01T00:00:28.483903,81,0,0
2001-01-01T00:00:28.500570,82,0,0
2001-01-01T00:00:28.517237,80,0,0
2001-01-01T00:00:28.533904,76,0,0
2001-01-01T00:00:28.550571,72,0,0
2001-01-01T00:00:28.567238,67,0,0
2001-01-01T00:00:28.583905,63,0,0
2001-01-01T00:00:28.600572,58,0,0
2001-01-01T00:00:28.617239,55,0,0
2001-01-01T00:00:28.633906,49,0,0
2001-01-01T00:00:28.650573,46,0,0
2001-01-01T00:00:28.667240,45,0,0
2001-01-01T00:00:28.683907,43,0,0
2001-01-01T00:00:28.700574,43,0,0
2001-01-01T00:00:28.717241,44,0,0
2001-01-01T00:00:28.733908,44,0,0
2001-01-01T00:00:28.750575,45,0,0
2001-01-01T00:00:28.767242,46,0,0
2001-01-01T00:00:28.783909,46,0,0
2001-01-01T00:00:28.800576,44,0,0
2001-01-01T00:00:28.817243,42,0,0
2001-01-01T00:00:28.833910,40,0,0
2001-01-01T00:00:28.850577,38,0,0
2001-01-01T00:00:28.867244,34,0,0
2001-01-01T00:00:28.883911,32,0,0
2001-01-01T00:00:28.900578,31,0,0
2001-01-01T00:00:28.917245,29,0,0
2001-01-01T00:00:28.933912,30,0,0
2001-01-01T00:00:28.950579,29,0,0
2001-01-01T00:00:28.967246,27,0,0
2001-01-01T00:00:28.983913,25,0,0
2001-01-01T00:00:29.000580,24,0,0
2001-01-01T00:00:29.017247,23,0,0
2001-01-01T00:00:29.033914,25,0,0
2001-01-01T00:00:29.050581,30,0,0
2001-01-01T00:00:29.067248,37,0,0
2001-01-01T00:00:29.083915,46,0,0
2001-01-01T00:00:29.100582,56,0,0
2001-01-01T00:00:29.117249,66,0,0
2001-01-01T00:00:29.133916,79,0,0
2001-01-01T00:00:29.150583,83,0,0
2001-01-01T00:00:29.167250,84,0,0
2001-01-01T00:00:29.183917,82,0,0
2001-01-01T00:00:29.200584,78,0,0
2001-01-01T00:00:29.217251,73,0,0
2001-01-01T00:00:29.233918,69,0,0
2001-01-01T00:00:29.250585,64,0,0
2001-01-01T00:00:29.267252,59,0,0
2001-01-01T00:00:29.283919,55,0,0
2001-01-01T00:00:29.300586,52,0,0
2001-01-01T00:00:29.317253,49,0,0
2001-01-01T00:00:29.333920,47,0,0
2001-01-01T00:00:29.350587,46,0,0
2001-01-01T00:00:29.367254,46,0,0
2001-01-01T00:00:29.383921,44,0,0
2001-01-01T00:00:29.400588,44,0,0
2001-01-01T00:00:29.417255,45,0,0
2001-01-01T00:00:29.433922,45,0,0
2001-01-01T00:00:29.450589,44,0,0
2001-01-01T00:00:29.467256,43,0,0
2001-01-01T00:00:29.483923,41,0,0
2001-01-01T00:00:29.500590,40,0,0
2001-01-01T00:00:29.517257,38,0,0
2001-01-01T00:00:29.533924,35,0,0
2001-01-01T00:00:29.550591,33,0,0
2001-01-01T00:00:29.567258,31,0,0
2001-01-01T00:00:29.583925,33,0,0
2001-01-01T00:00:29.600592,31,0,0
2001-01-01T00:00:29.617259,29,0,0
2001-01-01T00:00:29.633926,25,0,0
2001-01-01T00:00:29.650593,24,0,0
2001-01-01T00:00:29.667260,22,0,0
2001-01-01T00:00:29.683927,22,0,0
2001-01-01T00:00:29.700594,22,0,0
2001-01-01T00:00:29.717261,25,0,0
2001-01-01T00:00:29.733928,31,0,0
2001-01-01T00:00:29.750595,39,0,0
2001-01-01T00:00:29.767262,49,0,0
2001-01-01T00:00:29.783929,59,0,0
2001-01-01T00:00:29.800596,68,0,0
2001-01-01T00:00:29.817263,74,0,0
2001-01-01T00:00:29.833930,76,0,0
2001-01-01T00:00:29.850597,75,0,0
2001-01-01T00:00:29.867264,71,0,0
2001-01-01T00:00:29.883931,67,0,0
2001-01-01T00:00:29.900598,68,0,0
2001-01-01T00:00:29.917265,63,0,0
2001-01-01T00:00:29.933932,58,0,0
2001-01-01T00:00:29.950599,54,0,0
2001-01-01T00:00:29.967266,51,0,0
2001-01-01T00:00:29.983933,48,0,0
2001-01-01T00:00:30.000600,47,0,0
2001-01-01T00:00:30.017267,44,0,0
2001-01-01T00:00:30.033934,42,0,0
2001-01-01T00:00:30.050601,40,0,0
2001-01-01T00:00:30.067268,40,0,0
2001-01-01T00:00:30.083935,40,0,0
2001-01-01T00:00:30.100602,40,0,0
2001-01-01T00:00:30.117269,40,0,0
2001-01-01T00:00:30.133936,40,0,0
2001-01-01T00:00:30.150603,43,0,0
2001-01-01T00:00:30.167270,42,0,0
2001-01-01T00:00:30.183937,39,0,0
2001-01-01T00:00:30.200604,38,0,0
2001-01-01T00:00:30.217271,35,0,0
2001-01-01T00:00:30.233938,33,0,0
2001-01-01T00:00:30.250605,31,0,0
2001-01-01T00:00:30.267272,28,0,0
2001-01-01T00:00:30.283939,27,0,0
2001-01-01T00:00:30.300606,25,0,0
2001-01-01T00:00:30.317273,23,0,0
2001-01-01T00:00:30.333940,22,0,0
2001-01-01T00:00:30.350607,20,0,0
2001-01-01T00:00:30.367274,18,0,0
2001-01-01T00:00:30.383941,17,0,0
2001-01-01T00:00:30.400608,16,0,0
2001-01-01T00:00:30.417275,18,0,0
2001-01-01T00:00:30.433942,22,0,0
2001-01-01T00:00:30.450609,36,0,0
2001-01-01T00:00:30.467276,44,0,0
2001-01-01T00:00:30.483943,55,0,0
2001-01-01T00:00:30.500610,65,0,0
2001-01-01T00:00:30.517277,72,0,0
2001-01-01T00:00:30.533944,76,0,0
2001-01-01T00:00:30.550611,76,0,0
2001-01-01T00:00:30.567278,73,0,0
2001-01-01T00:00:30.583945,69,0,0
2001-01-01T00:00:30.600612,62,0,0
2001-01-01T00:00:30.617279,58,0,0
2001-01-01T00:00:30.633946,54,0,0
2001-01-01T00:00:30.650613,51,0,0
2001-01-01T00:00:30.667280,47,0,0
2001-01-01T00:00:30.683947,44,0,0
2001-01-01T00:00:30.700614,42,0,0
2001-01-01T00:00:30.717281,40,0,0
2001-01-01T00:00:30.733948,40,0,0
2001-01-01T00:00:30.750615,39,0,0
2001-01-01T00:00:30.767282,39,0,0
2001-01-01T00:00:30.783949,40,0,0
2001-01-01T00:00:30.800616,40,0,0
2001-01-01T00:00:30.817283,40,0,0
2001-01-01T00:00:30.833950,39,0,0
2001-01-01T00:00:30.850617,37,0,0
2001-01-01T00:00:30.867284,36,0,0
2001-01-01T00:00:30.883951,34,0,0
2001-01-01T00:00:30.900618,35,0,0
2001-01-01T00:00:30.917285,33,0,0
2001-01-01T00:00:30.933952,31,0,0
2001-01-01T00:00:30.950619,27,0,0
2001-01-01T00:00:30.967286,25,0,0
2001-01-01T00:00:30.983953,23,0,0
2001-01-01T00:00:31.000620,22,0,0
2001-01-01T00:00:31.017287,20,0,0
2001-01-01T00:00:31.033954,19,0,0
2001-01-01T00:00:31.050621,18,0,0
2001-01-01T00:00:31.067288,16,0,0
2001-01-01T00:00:31.083955,15,0,0
2001-01-01T00:00:31.100622,14,0,0
2001-01-01T00:00:31.117289,13,0,0
2001-01-01T00:00:31.133956,14,0,0
2001-01-01T00:00:31.150623,18,0,0
2001-01-01T00:00:31.167290,25,0,0
2001-01-01T00:00:31.183957,34,0,0
2001-01-01T00:00:31.200624,44,0,0
2001-01-01T00:00:31.217291,60,0,0
2001-01-01T00:00:31.233958,68,0,0
2001-01-01T00:00:31.250625,73,0,0
2001-01-01T00:00:31.267292,73,0,0
2001-01-01T00:00:31.283959,71,0,0
2001-01-01T00:00:31.300626,68,0,0
2001-01-01T00:00:31.317293,63,0,0
2001-01-01T00:00:31.333960,58,0,0
2001-01-01T00:00:31.350627,54,0,0
2001-01-01T00:00:31.367294,49,0,0
2001-01-01T00:00:31.383961,46,0,0
2001-01-01T00:00:31.400628,43,0,0
2001-01-01T00:00:31.417295,40,0,0
2001-01-01T00:00:31.433962,39,0,0
2001-01-01T00:00:31.450629,38,0,0
2001-01-01T00:00:31.467296,35,0,0
2001-01-01T00:00:31.483963,35,0,0
2001-01-01T00:00:31.500630,36,0,0
2001-01-01T00:00:31.517297,36,0,0
2001-01-01T00:00:31.533964,36,0,0
2001-01-01T00:00:31.550631,36,0,0
2001-01-01T00:00:31.567298,35,0,0
2001-01-01T00:00:31.583965,33,0,0
2001-01-01T00:00:31.600632,31,0,0
2001-01-01T00:00:31.617299,29,0,0
2001-01-01T00:00:31.633966,27,0,0
2001-01-01T00:00:31.650633,25,0,0
2001-01-01T00:00:31.667300,27,0,0
2001-01-01T00:00:31.683967,25,0,0
2001-01-01T00:00:31.700634,22,0,0
2001-01-01T00:00:31.717301,21,0,0
2001-01-01T00:00:31.733968,20,0,0
2001-01-01T00:00:31.750635,19,0,0
2001-01-01T00:00:31.767302,17,0,0
2001-01-01T00:00:31.783969,16,0,0
2001-01-01T00:00:31.800636,15,0,0
2001-01-01T00:00:31.817303,15,0,0
2001-01-01T00:00:31.833970,14,0,0
2001-01-01T00:00:31.850637,13,0,0
2001-01-01T00:00:31.867304,14,0,0
2001-01-01T00:00:31.883971,17,0,0
2001-01-01T00:00:31.900638,23,0,0
2001-01-01T00:00:31.917305,31,0,0
2001-01-01T00:00:31.933972,41,0,0
2001-01-01T00:00:31.950639,51,0,0
2001-01-01T00:00:31.967306,60,0,0
2001-01-01T00:00:31.983973,65,0,0
2001-01-01T00:00:32.000640,67,0,0
2001-01-01T00:00:32.017307,65,0,0
2001-01-01T00:00:32.033974,61,0,0
2001-01-01T00:00:32.050641,56,0,0
2001-01-01T00:00:32.067308,56,0,0
2001-01-01T00:00:32.083975,51,0,0
2001-01-01T00:00:32.100642,47,0,0
2001-01-01T00:00:32.117309,44,0,0
2001-01-01T00:00:32.133976,41,0,0
2001-01-01T00:00:32.150643,40,0,0
2001-01-01T00:00:32.167310,38,0,0
2001-01-01T00:00:32.183977,37,0,0
2001-01-01T00:00:32.200644,37,0,0
2001-01-01T00:00:32.217311,34,0,0
2001-01-01T00:00:32.233978,35,0,0
2001-01-01T00:00:32.250645,36,0,0
2001-01-01T00:00:32.267312,36,0,0
2001-01-01T00:00:32.283979,36,0,0
2001-01-01T00:00:32.300646,34,0,0
2001-01-01T00:00:32.317313,33,0,0
2001-01-01T00:00:32.333980,31,0,0
2001-01-01T00:00:32.350647,29,0,0
2001-01-01T00:00:32.367314,27,0,0
2001-01-01T00:00:32.383981,25,0,0
2001-01-01T00:00:32.400648,24,0,0
2001-01-01T00:00:32.417315,22,0,0
2001-01-01T00:00:32.433982,21,0,0
2001-01-01T00:00:32.450649,20,0,0
2001-01-01T00:00:32.467316,19,0,0
2001-01-01T00:00:32.483983,17,0,0
2001-01-01T00:00:32.500650,16,0,0
2001-01-01T00:00:32.517317,19,0,0
2001-01-01T00:00:32.533984,18,0,0
2001-01-01T00:00:32.550651,17,0,0
2001-01-01T00:00:32.567318,14,0,0
2001-01-01T00:00:32.583985,15,0,0
2001-01-01T00:00:32.600652,19,0,0
2001-01-01T00:00:32.617319,26,0,0
2001-01-01T00:00:32.633986,34,0,0
2001-01-01T00:00:32.650653,43,0,0
2001-01-01T00:00:32.667320,54,0,0
2001-01-01T00:00:32.683987,62,0,0
2001-01-01T00:00:32.700654,67,0,0
2001-01-01T00:00:32.717321,68,0,0
2001-01-01T00:00:32.733988,67,0,0
2001-01-01T00:00:32.750655,63,0,0
2001-01-01T00:00:32.767322,59,0,0
2001-01-01T00:00:32.783989,54,0,0
2001-01-01T00:00:32.800656,50,0,0
2001-01-01T00:00:32.817323,46,0,0
2001-01-01T00:00:32.833990,48,0,0
2001-01-01T00:00:32.850657,44,0,0
2001-01-01T00:00:32.867324,41,0,0
2001-01-01T00:00:32.883991,39,0,0
2001-01-01T00:00:32.900658,38,0,0
2001-01-01T00:00:32.917325,37,0,0
2001-01-01T00:00:32.933992,38,0,0
2001-01-01T00:00:32.950659,38,0,0
2001-01-01T00:00:32.967326,38,0,0
2001-01-01T00:00:32.983993,38,0,0
2001-01-01T00:00:33.000660,37,0,0
2001-01-01T00:00:33.017327,36,0,0
2001-01-01T00:00:33.033994,35,0,0
2001-01-01T00:00:33.050661,33,0,0
2001-01-01T00:00:33.067328,31,0,0
2001-01-01T00:00:33.083995,25,0,0
2001-01-01T00:00:33.100662,23,0,0
2001-01-01T00:00:33.117329,22,0,0
2001-01-01T00:00:33.133996,20,0,0
2001-01-01T00:00:33.150663,18,0,0
2001-01-01T00:00:33.167330,17,0,0
2001-01-01T00:00:33.183997,16,0,0
2001-01-01T00:00:33.200664,15,0,0
2001-01-01T00:00:33.217331,14,0,0
2001-01-01T00:00:33.233998,13,0,0
2001-01-01T00:00:33.250665,11,0,0
2001-01-01T00:00:33.267332,10,0,0
2001-01-01T00:00:33.283999,10,0,0
2001-01-01T00:00:33.300666,13,0,0
2001-01-01T00:00:33.317333,17,0,0
2001-01-01T00:00:33.334000,26,0,0
2001-01-01T00:00:33.350667,37,0,0
2001-01-01T00:00:33.367334,47,0,0
2001-01-01T00:00:33.384001,61,0,0
2001-01-01T00:00:33.400668,69,0,0
2001-01-01T00:00:33.417335,72,0,0
2001-01-01T00:00:33.434002,72,0,0
2001-01-01T00:00:33.450669,69,0,0
2001-01-01T00:00:33.467336,65,0,0
2001-01-01T00:00:33.484003,61,0,0
2001-01-01T00:00:33.500670,56,0,0
2001-01-01T00:00:33.517337,51,0,0
2001-01-01T00:00:33.534004,47,0,0
2001-01-01T00:00:33.550671,44,0,0
2001-01-01T00:00:33.567338,41,0,0
2001-01-01T00:00:33.584005,44,0,0
2001-01-01T00:00:33.600672,41,0,0
2001-01-01T00:00:33.617339,40,0,0
2001-01-01T00:00:33.634006,40,0,0
2001-01-01T00:00:33.650673,40,0,0
2001-01-01T00:00:33.667340,40,0,0
2001-01-01T00:00:33.684007,40,0,0
2001-01-01T00:00:33.700674,39,0,0
2001-01-01T00:00:33.717341,39,0,0
2001-01-01T00:00:33.734008,38,0,0
2001-01-01T00:00:33.750675,36,0,0
2001-01-01T00:00:33.767342,33,0,0
2001-01-01T00:00:33.784009,31,0,0
2001-01-01T00:00:33.800676,29,0,0
2001-01-01T00:00:33.817343,27,0,0
2001-01-01T00:00:33.834010,22,0,0
2001-01-01T00:00:33.850677,20,0,0
2001-01-01T00:00:33.867344,18,0,0
2001-01-01T00:00:33.884011,17,0,0
2001-01-01T00:00:33.900678,15,0,0
2001-01-01T00:00:33.917345,14,0,0
2001-01-01T00:00:33.934012,13,0,0
2001-01-01T00:00:33.950679,12,0,0
2001-01-01T00:00:33.967346,11,0,0
2001-01-01T00:00:33.984013,11,0,0
2001-01-01T00:00:34.000680,12,0,0
2001-01-01T00:00:34.017347,18,0,0
2001-01-01T00:00:34.034014,30,0,0
2001-01-01T00:00:34.050681,39,0,0
2001-01-01T00:00:34.067348,49,0,0
2001-01-01T00:00:34.084015,58,0,0
2001-01-01T00:00:34.100682,66,0,0
2001-01-01T00:00:34.117349,70,0,0
2001-01-01T00:00:34.134016,70,0,0
2001-01-01T00:00:34.150683,68,0,0
2001-01-01T00:00:34.167350,64,0,0
2001-01-01T00:00:34.184017,59,0,0
2001-01-01T00:00:34.200684,54,0,0
2001-01-01T00:00:34.217351,49,0,0
2001-01-01T00:00:34.234018,45,0,0
2001-01-01T00:00:34.250685,42,0,0
2001-01-01T00:00:34.267352,39,0,0
2001-01-01T00:00:34.284019,36,0,0
2001-01-01T00:00:34.300686,34,0,0
2001-01-01T00:00:34.317353,33,0,0
2001-01-01T00:00:34.334020,32,0,0
2001-01-01T00:00:34.350687,38,0,0
2001-01-01T00:00:34.367354,38,0,0
2001-01-01T00:00:34.384021,38,0,0
2001-01-01T00:00:34.400688,38,0,0
2001-01-01T00:00:34.417355,37,0,0
2001-01-01T00:00:34.434022,36,0,0
2001-01-01T00:00:34.450689,34,0,0
2001-01-01T00:00:34.467356,31,0,0
2001-01-01T00:00:34.484023,29,0,0
2001-01-01T00:00:34.500690,26,0,0
2001-01-01T00:00:34.517357,24,0,0
2001-01-01T00:00:34.534024,22,0,0
2001-01-01T00:00:34.550691,20,0,0
2001-01-01T00:00:34.567358,18,0,0
2001-01-01T00:00:34.584025,17,0,0
2001-01-01T00:00:34.600692,12,0,0
2001-01-01T00:00:34.617359,11,0,0
2001-01-01T00:00:34.634026,10,0,0
2001-01-01T00:00:34.650693,9,0,0
2001-01-01T00:00:34.667360,9,0,0
2001-01-01T00:00:34.684027,8,0,0
2001-01-01T00:00:34.700694,9,0,0
2001-01-01T00:00:34.717361,14,0,0
2001-01-01T00:00:34.734028,19,0,0
2001-01-01T00:00:34.750695,29,0,0
2001-01-01T00:00:34.767362,40,0,0
2001-01-01T00:00:34.784029,49,0,0
2001-01-01T00:00:34.800696,62,0,0
2001-01-01T00:00:34.817363,67,0,0
2001-01-01T00:00:34.834030,68,0,0
2001-01-01T00:00:34.850697,66,0,0
2001-01-01T00:00:34.867364,61,0,0
2001-01-01T00:00:34.884031,56,0,0
2001-01-01T00:00:34.900698,50,0,0
2001-01-01T00:00:34.917365,45,0,0
2001-01-01T00:00:34.934032,40,0,0
2001-01-01T00:00:34.950699,37,0,0
2001-01-01T00:00:34.967366,33,0,0
2001-01-01T00:00:34.984033,31,0,0
2001-01-01T00:00:35.000700,29,0,0
2001-01-01T00:00:35.017367,28,0,0
2001-01-01T00:00:35.034034,28,0,0
2001-01-01T00:00:35.050701,29,0,0
2001-01-01T00:00:35.067368,30,0,0
2001-01-01T00:00:35.084035,31,0,0
2001-01-01T00:00:35.100702,37,0,0
2001-01-01T00:00:35.117369,36,0,0
2001-01-01T00:00:35.134036,35,0,0
2001-01-01T00:00:35.150703,34,0,0
2001-01-01T00:00:35.167370,32,0,0
2001-01-01T00:00:35.184037,30,0,0
2001-01-01T00:00:35.200704,27,0,0
2001-01-01T00:00:35.217371,25,0,0
2001-01-01T00:00:35.234038,23,0,0
2001-01-01T00:00:35.250705,21,0,0
2001-01-01T00:00:35.267372,19,0,0
2001-01-01T00:00:35.284039,18,0,0
2001-01-01T00:00:35.300706,16,0,0
2001-01-01T00:00:35.317373,14,0,0
2001-01-01T00:00:35.334040,13,0,0
2001-01-01T00:00:35.350707,9,0,0
2001-01-01T00:00:35.367374,8,0,0
2001-01-01T00:00:35.384041,10,0,0
2001-01-01T00:00:35.400708,14,0,0
2001-01-01T00:00:35.417375,20,0,0
2001-01-01T00:00:35.434042,30,0,0
2001-01-01T00:00:35.450709,40,0,0
2001-01-01T00:00:35.467376,51,0,0
2001-01-01T00:00:35.484043,59,0,0
2001-01-01T00:00:35.500710,62,0,0
2001-01-01T00:00:35.517377,63,0,0
2001-01-01T00:00:35.534044,61,0,0
2001-01-01T00:00:35.550711,60,0,0
2001-01-01T00:00:35.567378,54,0,0
2001-01-01T00:00:35.584045,48,0,0
2001-01-01T00:00:35.600712,43,0,0
2001-01-01T00:00:35.617379,40,0,0
2001-01-01T00:00:35.634046,35,0,0
2001-01-01T00:00:35.650713,33,0,0
2001-01-01T00:00:35.667380,31,0,0
2001-01-01T00:00:35.684047,30,0,0
2001-01-01T00:00:35.700714,30,0,0
2001-01-01T00:00:35.717381,31,0,0
2001-01-01T00:00:35.734048,32,0,0
2001-01-01T00:00:35.750715,33,0,0
2001-01-01T00:00:35.767382,34,0,0
2001-01-01T00:00:35.784049,35,0,0
2001-01-01T00:00:35.800716,34,0,0
2001-01-01T00:00:35.817383,33,0,0
2001-01-01T00:00:35.834050,31,0,0
2001-01-01T00:00:35.850717,29,0,0
2001-01-01T00:00:35.867384,32,0,0
2001-01-01T00:00:35.884051,30,0,0
2001-01-01T00:00:35.900718,28,0,0
2001-01-01T00:00:35.917385,26,0,0
2001-01-01T00:00:35.934052,24,0,0
2001-01-01T00:00:35.950719,22,0,0
2001-01-01T00:00:35.967386,21,0,0
2001-01-01T00:00:35.984053,19,0,0
2001-01-01T00:00:36.000720,18,0,0
2001-01-01T00:00:36.017387,16,0,0
2001-01-01T00:00:36.034054,15,0,0
2001-01-01T00:00:36.050721,16,0,0
2001-01-01T00:00:36.067388,20,0,0
2001-01-01T00:00:36.084055,27,0,0
2001-01-01T00:00:36.100722,36,0,0
2001-01-01T00:00:36.117389,46,0,0
2001-01-01T00:00:36.134056,57,0,0
2001-01-01T00:00:36.150723,65,0,0
2001-01-01T00:00:36.167390,71,0,0
2001-01-01T00:00:36.184057,72,0,0
2001-01-01T00:00:36.200724,70,0,0
2001-01-01T00:00:36.217391,63,0,0
2001-01-01T00:00:36.234058,58,0,0
2001-01-01T00:00:36.250725,54,0,0
2001-01-01T00:00:36.267392,49,0,0
2001-01-01T00:00:36.284059,45,0,0
2001-01-01T00:00:36.300726,41,0,0
2001-01-01T00:00:36.317393,39,0,0
2001-01-01T00:00:36.334060,36,0,0
2001-01-01T00:00:36.350727,33,0,0
2001-01-01T00:00:36.367394,32,0,0
2001-01-01T00:00:36.384061,32,0,0
2001-01-01T00:00:36.400728,33,0,0
2001-01-01T00:00:36.417395,37,0,0
2001-01-01T00:00:36.434062,38,0,0
2001-01-01T00:00:36.450729,39,0,0
2001-01-01T00:00:36.467396,39,0,0
2001-01-01T00:00:36.484063,38,0,0
2001-01-01T00:00:36.500730,37,0,0
2001-01-01T00:00:36.517397,35,0,0
2001-01-01T00:00:36.534064,33,0,0
2001-01-01T00:00:36.550731,30,0,0
2001-01-01T00:00:36.567398,28,0,0
2001-01-01T00:00:36.584065,26,0,0
2001-01-01T00:00:36.600732,24,0,0
2001-01-01T00:00:36.617399,28,0,0
2001-01-01T00:00:36.634066,25,0,0
2001-01-01T00:00:36.650733,24,0,0
2001-01-01T00:00:36.667400,22,0,0
2001-01-01T00:00:36.684067,21,0,0
2001-01-01T00:00:36.700734,21,0,0
2001-01-01T00:00:36.717401,23,0,0
2001-01-01T00:00:36.734068,28,0,0
2001-01-01T00:00:36.750735,36,0,0
2001-01-01T00:00:36.767402,46,0,0
2001-01-01T00:00:36.784069,56,0,0
2001-01-01T00:00:36.800736,67,0,0
2001-01-01T00:00:36.817403,74,0,0
2001-01-01T00:00:36.834070,77,0,0
2001-01-01T00:00:36.850737,77,0,0
2001-01-01T00:00:36.867404,72,0,0
2001-01-01T00:00:36.884071,68,0,0
2001-01-01T00:00:36.900738,63,0,0
2001-01-01T00:00:36.917405,59,0,0
2001-01-01T00:00:36.934072,55,0,0
2001-01-01T00:00:36.950739,51,0,0
2001-01-01T00:00:36.967406,48,0,0
2001-01-01T00:00:36.984073,45,0,0
2001-01-01T00:00:37.000740,42,0,0
2001-01-01T00:00:37.017407,39,0,0
2001-01-01T00:00:37.034074,39,0,0
2001-01-01T00:00:37.050741,39,0,0
2001-01-01T00:00:37.067408,42,0,0
2001-01-01T00:00:37.084075,43,0,0
2001-01-01T00:00:37.100742,43,0,0
2001-01-01T00:00:37.117409,44,0,0
2001-01-01T00:00:37.134076,43,0,0
2001-01-01T00:00:37.150743,42,0,0
2001-01-01T00:00:37.167410,41,0,0
2001-01-01T00:00:37.184077,39,0,0
2001-01-01T00:00:37.200744,37,0,0
2001-01-01T00:00:37.217411,35,0,0
2001-01-01T00:00:37.234078,33,0,0
2001-01-01T00:00:37.250745,31,0,0
2001-01-01T00:00:37.267412,29,0,0
2001-01-01T00:00:37.284079,27,0,0
2001-01-01T00:00:37.300746,25,0,0
2001-01-01T00:00:37.317413,23,0,0
2001-01-01T00:00:37.334080,21,0,0
2001-01-01T00:00:37.350747,20,0,0
2001-01-01T00:00:37.367414,21,0,0
2001-01-01T00:00:37.384081,31,0,0
2001-01-01T00:00:37.400748,38,0,0
2001-01-01T00:00:37.417415,47,0,0
2001-01-01T00:00:37.434082,57,0,0
2001-01-01T00:00:37.450749,68,0,0
2001-01-01T00:00:37.467416,76,0,0
2001-01-01T00:00:37.484083,81,0,0
2001-01-01T00:00:37.500750,82,0,0
2001-01-01T00:00:37.517417,80,0,0
2001-01-01T00:00:37.534084,76,0,0
2001-01-01T00:00:37.550751,72,0,0
2001-01-01T00:00:37.567418,67,0,0
2001-01-01T00:00:37.584085,63,0,0
2001-01-01T00:00:37.600752,58,0,0
2001-01-01T00:00:37.617419,55,0,0
2001-01-01T00:00:37.634086,49,0,0
2001-01-01T00:00:37.650753,46,0,0
2001-01-01T00:00:37.667420,45,0,0
2001-01-01T00:00:37.684087,43,0,0
2001-01-01T00:00:37.700754,43,0,0
2001-01-01T00:00:37.717421,44,0,0
2001-01-01T00:00:37.734088,44,0,0
2001-01-01T00:00:37.750755,45,0,0
2001-01-01T00:00:37.767422,46,0,0
2001-01-01T00:00:37.784089,46,0,0
2001-01-01T00:00:37.800756,44,0,0
2001-01-01T00:00:37.817423,42,0,0
2001-01-01T00:00:37.834090,40,0,0
2001-01-01T00:00:37.850757,38,0,0
2001-01-01T00:00:37.867424,34,0,0
2001-01-01T00:00:37.884091,32,0,0
2001-01-01T00:00:37.900758,31,0,0
2001-01-01T00:00:37.917425,29,0,0
2001-01-01T00:00:37.934092,30,0,0
2001-01-01T00:00:37.950759,29,0,0
2001-01-01T00:00:37.967426,27,0,0
2001-01-01T00:00:37.984093,25,0,0
2001-01-01T00:00:38.000760,24,0,0
2001-01-01T00:00:38.017427,23,0,0
2001-01-01T00:00:38.034094,25,0,0
2001-01-01T00:00:38.050761,30,0,0
2001-01-01T00:00:38.067428,37,0,0
2001-01-01T00:00:38.084095,46,0,0
2001-01-01T00:00:38.100762,56,0,0
2001-01-01T00:00:38.117429,66,0,0
2001-01-01T00:00:38.134096,79,0,0
2001-01-01T00:00:38.150763,83,0,0
2001-01-01T00:00:38.167430,84,0,0
2001-01-01T00:00:38.184097,82,0,0
2001-01-01T00:00:38.200764,78,0,0
2001-01-01T00:00:38.217431,73,0,0
2001-01-01T00:00:38.234098,69,0,0
2001-01-01T00:00:38.250765,64,0,0
2001-01-01T00:00:38.267432,59,0,0
2001-01-01T00:00:38.284099,55,0,0
2001-01-01T00:00:38.300766,52,0,0
2001-01-01T00:00:38.317433,49,0,0
2001-01-01T00:00:38.334100,47,0,0
2001-01-01T00:00:38.350767,46,0,0
2001-01-01T00:00:38.367434,46,0,0
2001-01-01T00:00:38.384101,44,0,0
2001-01-01T00:00:38.400768,44,0,0
2001-01-01T00:00:38.417435,45,0,0
2001-01-01T00:00:38.434102,45,0,0
2001-01-01T00:00:38.450769,44,0,0
2001-01-01T00:00:38.467436,43,0,0
2001-01-01T00:00:38.484103,41,0,0
2001-01-01T00:00:38.500770,40,0,0
2001-01-01T00:00:38.517437,38,0,0
2001-01-01T00:00:38.534104,35,0,0
2001-01-01T00:00:38.550771,33,0,0
2001-01-01T00:00:38.567438,31,0,0
2001-01-01T00:00:38.584105,33,0,0
2001-01-01T00:00:38.600772,31,0,0
2001-01-01T00:00:38.617439,29,0,0
2001-01-01T00:00:38.634106,25,0,0
2001-01-01T00:00:38.650773,24,0,0
2001-01-01T00:00:38.667440,22,0,0
2001-01-01T00:00:38.684107,22,0,0
2001-01-01T00:00:38.700774,22,0,0
2001-01-01T00:00:38.717441,25,0,0
2001-01-01T00:00:38.734108,31,0,0
2001-01-01T00:00:38.750775,39,0,0
2001-01-01T00:00:38.767442,49,0,0
2001-01-01T00:00:38.784109,59,0,0
2001-01-01T00:00:38.800776,68,0,0
2001-01-01T00:00:38.817443,74,0,0
2001-01-01T00:00:38.834110,76,0,0
2001-01-01T00:00:38.850777,75,0,0
2001-01-01T00:00:38.867444,71,0,0
2001-01-01T00:00:38.884111,67,0,0
2001-01-01T00:00:38.900778,68,0,0
2001-01-01T00:00:38.917445,63,0,0
2001-01-01T00:00:38.934112,58,0,0
2001-01-01T00:00:38.950779,54,0,0
2001-01-01T00:00:38.967446,51,0,0
2001-01-01T00:00:38.984113,48,0,0
2001-01-01T00:00:39.000780,47,0,0
2001-01-01T00:00:39.017447,46,0,0
2001-01-01T00:00:39.034114,46,0,0
2001-01-01T00:00:39.050781,46,0,0
2001-01-01T00:00:39.067448,46,0,0
2001-01-01T00:00:39.084115,47,0,0
2001-01-01T00:00:39.100782,47,0,0
2001-01-01T00:00:39.117449,45,0,0
2001-01-01T00:00:39.134116,44,0,0
2001-01-01T00:00:39.150783,40,0,0
2001-01-01T00:00:39.167450,38,0,0
2001-01-01T00:00:39.184117,36,0,0
2001-01-01T00:00:39.200784,34,0,0
2001-01-01T00:00:39.217451,32,0,0
2001-01-01T00:00:39.234118,30,0,0
2001-01-01T00:00:39.250785,29,0,0
2001-01-01T00:00:39.267452,27,0,0
2001-01-01T00:00:39.284119,24,0,0
2001-01-01T00:00:39.300786,22,0,0
2001-01-01T00:00:39.317453,21,0,0
2001-01-01T00:00:39.334120,20,0,0
2001-01-01T00:00:39.350787,23,0,0
2001-01-01T00:00:39.367454,23,0,0
2001-01-01T00:00:39.384121,26,0,0
2001-01-01T00:00:39.400788,32,0,0
2001-01-01T00:00:39.417455,40,0,0
2001-01-01T00:00:39.434122,48,0,0
2001-01-01T00:00:39.450789,58,0,0
2001-01-01T00:00:39.467456,67,0,0
2001-01-01T00:00:39.484123,73,0,0
2001-01-01T00:00:39.500790,76,0,0
2001-01-01T00:00:39.517457,75,0,0
2001-01-01T00:00:39.534124,72,0,0
2001-01-01T00:00:39.550791,67,0,0
2001-01-01T00:00:39.567458,62,0,0
2001-01-01T00:00:39.584125,57,0,0
2001-01-01T00:00:39.600792,53,0,0
2001-01-01T00:00:39.617459,49,0,0
2001-01-01T00:00:39.634126,46,0,0
2001-01-01T00:00:39.650793,44,0,0
2001-01-01T00:00:39.667460,42,0,0
2001-01-01T00:00:39.684127,42,0,0
2001-01-01T00:00:39.700794,42,0,0
2001-01-01T00:00:39.717461,43,0,0
2001-01-01T00:00:39.734128,43,0,0
2001-01-01T00:00:39.750795,49,0,0
2001-01-01T00:00:39.767462,48,0,0
2001-01-01T00:00:39.784129,46,0,0
2001-01-01T00:00:39.800796,41,0,0
2001-01-01T00:00:39.817463,40,0,0
2001-01-01T00:00:39.834130,38,0,0
2001-01-01T00:00:39.850797,35,0,0
2001-01-01T00:00:39.867464,32,0,0
2001-01-01T00:00:39.884131,30,0,0
2001-01-01T00:00:39.900798,28,0,0
2001-01-01T00:00:39.917465,26,0,0
2001-01-01T00:00:39.934132,25,0,0
2001-01-01T00:00:39.950799,24,0,0
2001-01-01T00:00:39.967466,23,0,0
2001-01-01T00:00:39.984133,21,0,0
2001-01-01T00:00:40.000800,22,0,0
2001-01-01T00:00:40.017467,20,0,0
2001-01-01T00:00:40.034134,19,0,0
2001-01-01T00:00:40.050801,18,0,0
2001-01-01T00:00:40.067468,16,0,0
2001-01-01T00:00:40.084135,15,0,0
2001-01-01T00:00:40.100802,14,0,0
2001-01-01T00:00:40.117469,13,0,0
2001-01-01T00:00:40.134136,14,0,0
2001-01-01T00:00:40.150803,18,0,0
2001-01-01T00:00:40.167470,25,0,0
2001-01-01T00:00:40.184137,34,0,0
2001-01-01T00:00:40.200804,44,0,0
2001-01-01T00:00:40.217471,60,0,0
2001-01-01T00:00:40.234138,68,0,0
2001-01-01T00:00:40.250805,73,0,0
2001-01-01T00:00:40.267472,73,0,0
2001-01-01T00:00:40.284139,71,0,0
2001-01-01T00:00:40.300806,68,0,0
2001-01-01T00:00:40.317473,63,0,0
2001-01-01T00:00:40.334140,58,0,0
2001-01-01T00:00:40.350807,54,0,0
2001-01-01T00:00:40.367474,49,0,0
2001-01-01T00:00:40.384141,46,0,0
2001-01-01T00:00:40.400808,43,0,0
2001-01-01T00:00:40.417475,40,0,0
2001-01-01T00:00:40.434142,39,0,0
2001-01-01T00:00:40.450809,38,0,0
2001-01-01T00:00:40.467476,35,0,0
2001-01-01T00:00:40.484143,35,0,0
2001-01-01T00:00:40.500810,36,0,0
2001-01-01T00:00:40.517477,36,0,0
2001-01-01T00:00:40.534144,36,0,0
2001-01-01T00:00:40.550811,36,0,0
2001-01-01T00:00:40.567478,35,0,0
2001-01-01T00:00:40.584145,33,0,0
2001-01-01T00:00:40.600812,31,0,0
2001-01-01T00:00:40.617479,29,0,0
2001-01-01T00:00:40.634146,27,0,0
2001-01-01T00:00:40.650813,25,0,0
2001-01-01T00:00:40.667480,27,0,0
2001-01-01T00:00:40.684147,25,0,0
2001-01-01T00:00:40.700814,22,0,0
2001-01-01T00:00:40.717481,21,0,0
2001-01-01T00:00:40.734148,20,0,0
2001-01-01T00:00:40.750815,19,0,0
2001-01-01T00:00:40.767482,17,0,0
2001-01-01T00:00:40.784149,16,0,0
2001-01-01T00:00:40.800816,15,0,0
2001-01-01T00:00:40.817483,15,0,0
2001-01-01T00:00:40.834150,14,0,0
2001-01-01T00:00:40.850817,13,0,0
2001-01-01T00:00:40.867484,14,0,0
2001-01-01T00:00:40.884151,17,0,0
2001-01-01T00:00:40.900818,23,0,0
2001-01-01T00:00:40.917485,31,0,0
2001-01-01T00:00:40.934152,41,0,0
2001-01-01T00:00:40.950819,51,0,0
2001-01-01T00:00:40.967486,60,0,0
2001-01-01T00:00:40.984153,65,0,0
2001-01-01T00:00:41.000820,67,0,0
2001-01-01T00:00:41.017487,65,0,0
2001-01-01T00:00:41.034154,61,0,0
2001-01-01T00:00:41.050821,56,0,0
2001-01-01T00:00:41.067488,56,0,0
2001-01-01T00:00:41.084155,51,0,0
2001-01-01T00:00:41.100822,47,0,0
2001-01-01T00:00:41.117489,44,0,0
2001-01-01T00:00:41.134156,41,0,0
2001-01-01T00:00:41.150823,40,0,0
2001-01-01T00:00:41.167490,38,0,0
2001-01-01T00:00:41.184157,37,0,0
2001-01-01T00:00:41.200824,37,0,0
2001-01-01T00:00:41.217491,34,0,0
2001-01-01T00:00:41.234158,35,0,0
2001-01-01T00:00:41.250825,36,0,0
2001-01-01T00:00:41.267492,36,0,0
2001-01-01T00:00:41.284159,36,0,0
2001-01-01T00:00:41.300826,34,0,0
2001-01-01T00:00:41.317493,33,0,0
2001-01-01T00:00:41.334160,31,0,0
2001-01-01T00:00:41.350827,29,0,0
2001-01-01T00:00:41.367494,27,0,0
2001-01-01T00:00:41.384161,25,0,0
2001-01-01T00:00:41.400828,24,0,0
2001-01-01T00:00:41.417495,22,0,0
2001-01-01T00:00:41.434162,21,0,0
2001-01-01T00:00:41.450829,20,0,0
2001-01-01T00:00:41.467496,19,0,0
2001-01-01T00:00:41.484163,17,0,0
2001-01-01T00:00:41.500830,16,0,0
2001-01-01T00:00:41.517497,19,0,0
2001-01-01T00:00:41.534164,18,0,0
2001-01-01T00:00:41.550831,17,0,0
2001-01-01T00:00:41.567498,14,0,0
2001-01-01T00:00:41.584165,15,0,0
2001-01-01T00:00:41.600832,19,0,0
2001-01-01T00:00:41.617499,26,0,0
2001-01-01T00:00:41.634166,34,0,0
2001-01-01T00:00:41.650833,43,0,0
2001-01-01T00:00:41.667500,54,0,0
2001-01-01T00:00:41.684167,62,0,0
2001-01-01T00:00:41.700834,67,0,0
2001-01-01T00:00:41.717501,68,0,0
2001-01-01T00:00:41.734168,67,0,0
2001-01-01T00:00:41.750835,63,0,0
2001-01-01T00:00:41.767502,59,0,0
2001-01-01T00:00:41.784169,54,0,0
2001-01-01T00:00:41.800836,50,0,0
2001-01-01T00:00:41.817503,46,0,0
2001-01-01T00:00:41.834170,48,0,0
2001-01-01T00:00:41.850837,44,0,0
2001-01-01T00:00:41.867504,41,0,0
2001-01-01T00:00:41.884171,39,0,0
2001-01-01T00:00:41.900838,38,0,0
2001-01-01T00:00:41.917505,37,0,0
2001-01-01T00:00:41.934172,38,0,0
2001-01-01T00:00:41.950839,38,0,0
2001-01-01T00:00:41.967506,38,0,0
2001-01-01T00:00:41.984173,38,0,0
2001-01-01T00:00:42.000840,37,0,0
2001-01-01T00:00:42.017507,36,0,0
2001-01-01T00:00:42.034174,35,0,0
2001-01-01T00:00:42.050841,33,0,0
2001-01-01T00:00:42.067508,31,0,0
2001-01-01T00:00:42.084175,25,0,0
2001-01-01T00:00:42.100842,23,0,0
2001-01-01T00:00:42.117509,22,0,0
2001-01-01T00:00:42.134176,20,0,0
2001-01-01T00:00:42.150843,18,0,0
2001-01-01T00:00:42.167510,17,0,0
2001-01-01T00:00:42.184177,16,0,0
2001-01-01T00:00:42.200844,15,0,0
2001-01-01T00:00:42.217511,14,0,0
2001-01-01T00:00:42.234178,13,0,0
2001-01-01T00:00:42.250845,11,0,0
2001-01-01T00:00:42.267512,10,0,0
2001-01-01T00:00:42.284179,10,0,0
2001-01-01T00:00:42.300846,13,0,0
2001-01-01T00:00:42.317513,17,0,0
2001-01-01T00:00:42.334180,26,0,0
2001-01-01T00:00:42.350847,37,0,0
2001-01-01T00:00:42.367514,47,0,0
2001-01-01T00:00:42.384181,61,0,0
2001-01-01T00:00:42.400848,69,0,0
2001-01-01T00:00:42.417515,72,0,0
2001-01-01T00:00:42.434182,72,0,0
2001-01-01T00:00:42.450849,69,0,0
2001-01-01T00:00:42.467516,65,0,0
2001-01-01T00:00:42.484183,61,0,0
2001-01-01T00:00:42.500850,56,0,0
2001-01-01T00:00:42.517517,51,0,0
2001-01-01T00:00:42.534184,47,0,0
2001-01-01T00:00:42.550851,44,0,0
2001-01-01T00:00:42.567518,41,0,0
2001-01-01T00:00:42.584185,44,0,0
2001-01-01T00:00:42.600852,41,0,0
2001-01-01T00:00:42.617519,40,0,0
2001-01-01T00:00:42.634186,40,0,0
2001-01-01T00:00:42.650853,40,0,0
2001-01-01T00:00:42.667520,40,0,0
2001-01-01T00:00:42.684187,40,0,0
2001-01-01T00:00:42.700854,39,0,0
2001-01-01T00:00:42.717521,39,0,0
2001-01-01T00:00:42.734188,38,0,0
2001-01-01T00:00:42.750855,36,0,0
2001-01-01T00:00:42.767522,33,0,0
2001-01-01T00:00:42.784189,31,0,0
2001-01-01T00:00:42.800856,29,0,0
2001-01-01T00:00:42.817523,27,0,0
2001-01-01T00:00:42.834190,22,0,0
2001-01-01T00:00:42.850857,20,0,0
2001-01-01T00:00:42.867524,18,0,0
2001-01-01T00:00:42.884191,17,0,0
2001-01-01T00:00:42.900858,15,0,0
2001-01-01T00:00:42.917525,14,0,0
2001-01-01T00:00:42.934192,13,0,0
2001-01-01T00:00:42.950859,12,0,0
2001-01-01T00:00:42.967526,11,0,0
2001-01-01T00:00:42.984193,11,0,0
2001-01-01T00:00:43.000860,12,0,0
2001-01-01T00:00:43.017527,18,0,0
2001-01-01T00:00:43.034194,30,0,0
2001-01-01T00:00:43.050861,39,0,0
2001-01-01T00:00:43.067528,49,0,0
2001-01-01T00:00:43.084195,58,0,0
2001-01-01T00:00:43.100862,66,0,0
2001-01-01T00:00:43.117529,70,0,0
2001-01-01T00:00:43.134196,70,0,0
2001-01-01T00:00:43.150863,68,0,0
2001-01-01T00:00:43.167530,64,0,0
2001-01-01T00:00:43.184197,59,0,0
2001-01-01T00:00:43.200864,54,0,0
2001-01-01T00:00:43.217531,49,0,0
2001-01-01T00:00:43.234198,45,0,0
2001-01-01T00:00:43.250865,42,0,0
2001-01-01T00:00:43.267532,39,0,0
2001-01-01T00:00:43.284199,36,0,0
2001-01-01T00:00:43.300866,34,0,0
2001-01-01T00:00:43.317533,33,0,0
2001-01-01T00:00:43.334200,32,0,0
2001-01-01T00:00:43.350867,38,0,0
2001-01-01T00:00:43.367534,38,0,0
2001-01-01T00:00:43.384201,38,0,0
2001-01-01T00:00:43.400868,38,0,0
2001-01-01T00:00:43.417535,37,0,0
2001-01-01T00:00:43.434202,36,0,0
2001-01-01T00:00:43.450869,34,0,0
2001-01-01T00:00:43.467536,31,0,0
2001-01-01T00:00:43.484203,29,0,0
2001-01-01T00:00:43.500870,26,0,0
2001-01-01T00:00:43.517537,24,0,0
2001-01-01T00:00:43.534204,22,0,0
2001-01-01T00:00:43.550871,20,0,0
2001-01-01T00:00:43.567538,18,0,0
2001-01-01T00:00:43.584205,17,0,0
2001-01-01T00:00:43.600872,12,0,0
2001-01-01T00:00:43.617539,11,0,0
2001-01-01T00:00:43.634206,10,0,0
2001-01-01T00:00:43.650873,9,0,0
2001-01-01T00:00:43.667540,9,0,0
2001-01-01T00:00:43.684207,8,0,0
2001-01-01T00:00:43.700874,9,0,0
2001-01-01T00:00:43.717541,14,0,0
2001-01-01T00:00:43.734208,19,0,0
2001-01-01T00:00:43.750875,29,0,0
2001-01-01T00:00:43.767542,40,0,0
2001-01-01T00:00:43.784209,49,0,0
2001-01-01T00:00:43.800876,62,0,0
2001-01-01T00:00:43.817543,67,0,0
2001-01-01T00:00:43.834210,68,0,0
2001-01-01T00:00:43.850877,66,0,0
2001-01-01T00:00:43.867544,61,0,0
2001-01-01T00:00:43.884211,56,0,0
2001-01-01T00:00:43.900878,50,0,0
2001-01-01T00:00:43.917545,45,0,0
2001-01-01T00:00:43.934212,40,0,0
2001-01-01T00:00:43.950879,37,0,0
2001-01-01T00:00:43.967546,33,0,0
2001-01-01T00:00:43.984213,31,0,0
2001-01-01T00:00:44.000880,29,0,0
2001-01-01T00:00:44.017547,28,0,0
2001-01-01T00:00:44.034214,28,0,0
2001-01-01T00:00:44.050881,29,0,0
2001-01-01T00:00:44.067548,30,0,0
2001-01-01T00:00:44.084215,31,0,0
2001-01-01T00:00:44.100882,37,0,0
2001-01-01T00:00:44.117549,36,0,0
2001-01-01T00:00:44.134216,35,0,0
2001-01-01T00:00:44.150883,34,0,0
2001-01-01T00:00:44.167550,32,0,0
2001-01-01T00:00:44.184217,30,0,0
2001-01-01T00:00:44.200884,27,0,0
2001-01-01T00:00:44.217551,25,0,0
2001-01-01T00:00:44.234218,23,0,0
2001-01-01T00:00:44.250885,21,0,0
2001-01-01T00:00:44.267552,19,0,0
2001-01-01T00:00:44.284219,18,0,0
2001-01-01T00:00:44.300886,16,0,0
2001-01-01T00:00:44.317553,14,0,0
2001-01-01T00:00:44.334220,13,0,0
2001-01-01T00:00:44.350887,9,0,0
2001-01-01T00:00:44.367554,8,0,0
2001-01-01T00:00:44.384221,10,0,0
2001-01-01T00:00:44.400888,14,0,0
2001-01-01T00:00:44.417555,20,0,0
2001-01-01T00:00:44.434222,30,0,0
2001-01-01T00:00:44.450889,40,0,0
2001-01-01T00:00:44.467556,51,0,0
2001-01-01T00:00:44.484223,59,0,0
2001-01-01T00:00:44.500890,62,0,0
2001-01-01T00:00:44.517557,63,0,0
2001-01-01T00:00:44.534224,61,0,0
2001-01-01T00:00:44.550891,60,0,0
2001-01-01T00:00:44.567558,54,0,0
2001-01-01T00:00:44.584225,48,0,0
2001-01-01T00:00:44.600892,43,0,0
2001-01-01T00:00:44.617559,40,0,0
2001-01-01T00:00:44.634226,35,0,0
2001-01-01T00:00:44.650893,33,0,0
2001-01-01T00:00:44.667560,31,0,0
2001-01-01T00:00:44.684227,30,0,0
2001-01-01T00:00:44.700894,30,0,0
2001-01-01T00:00:44.717561,31,0,0
2001-01-01T00:00:44.734228,32,0,0
2001-01-01T00:00:44.750895,33,0,0
2001-01-01T00:00:44.767562,34,0,0
2001-01-01T00:00:44.784229,35,0,0
2001-01-01T00:00:44.800896,34,0,0
2001-01-01T00:00:44.817563,33,0,0
2001-01-01T00:00:44.834230,31,0,0
2001-01-01T00:00:44.850897,29,0,0
2001-01-01T00:00:44.867564,32,0,0
2001-01-01T00:00:44.884231,30,0,0
2001-01-01T00:00:44.900898,28,0,0
2001-01-01T00:00:44.917565,26,0,0
2001-01-01T00:00:44.934232,24,0,0
2001-01-01T00:00:44.950899,22,0,0
2001-01-01T00:00:44.967566,21,0,0
2001-01-01T00:00:44.984233,19,0,0
2001-01-01T00:00:45.000900,18,0,0
2001-01-01T00:00:45.017567,16,0,0
2001-01-01T00:00:45.034234,15,0,0
2001-01-01T00:00:45.050901,16,0,0
2001-01-01T00:00:45.067568,20,0,0
2001-01-01T00:00:45.084235,27,0,0
2001-01-01T00:00:45.100902,36,0,0
2001-01-01T00:00:45.117569,46,0,0
2001-01-01T00:00:45.134236,57,0,0
2001-01-01T00:00:45.150903,65,0,0
2001-01-01T00:00:45.167570,71,0,0
2001-01-01T00:00:45.184237,72,0,0
2001-01-01T00:00:45.200904,70,0,0
2001-01-01T00:00:45.217571,63,0,0
2001-01-01T00:00:45.234238,58,0,0
2001-01-01T00:00:45.250905,54,0,0
2001-01-01T00:00:45.267572,49,0,0
2001-01-01T00:00:45.284239,45,0,0
2001-01-01T00:00:45.300906,41,0,0
2001-01-01T00:00:45.317573,39,0,0
2001-01-01T00:00:45.334240,36,0,0
2001-01-01T00:00:45.350907,33,0,0
2001-01-01T00:00:45.367574,32,0,0
2001-01-01T00:00:45.384241,32,0,0
2001-01-01T00:00:45.400908,33,0,0
2001-01-01T00:00:45.417575,37,0,0
2001-01-01T00:00:45.434242,38,0,0
2001-01-01T00:00:45.450909,39,0,0
2001-01-01T00:00:45.467576,39,0,0
2001-01-01T00:00:45.484243,38,0,0
2001-01-01T00:00:45.500910,37,0,0
2001-01-01T00:00:45.517577,35,0,0
2001-01-01T00:00:45.534244,33,0,0
2001-01-01T00:00:45.550911,30,0,0
2001-01-01T00:00:45.567578,28,0,0
2001-01-01T00:00:45.584245,26,0,0
2001-01-01T00:00:45.600912,24,0,0
2001-01-01T00:00:45.617579,28,0,0
2001-01-01T00:00:45.634246,25,0,0
2001-01-01T00:00:45.650913,24,0,0
2001-01-01T00:00:45.667580,22,0,0
2001-01-01T00:00:45.684247,21,0,0
2001-01-01T00:00:45.700914,21,0,0
2001-01-01T00:00:45.717581,23,0,0
2001-01-01T00:00:45.734248,28,0,0
2001-01-01T00:00:45.750915,36,0,0
2001-01-01T00:00:45.767582,46,0,0
2001-01-01T00:00:45.784249,56,0,0
2001-01-01T00:00:45.800916,67,0,0
2001-01-01T00:00:45.817583,74,0,0
2001-01-01T00:00:45.834250,77,0,0
2001-01-01T00:00:45.850917,77,0,0
2001-01-01T00:00:45.867584,72,0,0
2001-01-01T00:00:45.884251,68,0,0
2001-01-01T00:00:45.900918,63,0,0
2001-01-01T00:00:45.917585,59,0,0
2001-01-01T00:00:45.934252,55,0,0
2001-01-01T00:00:45.950919,51,0,0
2001-01-01T00:00:45.967586,48,0,0
2001-01-01T00:00:45.984253,45,0,0
2001-01-01T00:00:46.000920,42,0,0
2001-01-01T00:00:46.017587,39,0,0
2001-01-01T00:00:46.034254,39,0,0
2001-01-01T00:00:46.050921,39,0,0
2001-01-01T00:00:46.067588,42,0,0
2001-01-01T00:00:46.084255,43,0,0
2001-01-01T00:00:46.100922,43,0,0
2001-01-01T00:00:46.117589,44,0,0
2001-01-01T00:00:46.134256,43,0,0
2001-01-01T00:00:46.150923,42,0,0
2001-01-01T00:00:46.167590,41,0,0
2001-01-01T00:00:46.184257,39,0,0
2001-01-01T00:00:46.200924,37,0,0
2001-01-01T00:00:46.217591,35,0,0
2001-01-01T00:00:46.234258,33,0,0
2001-01-01T00:00:46.250925,31,0,0
2001-01-01T00:00:46.267592,29,0,0
2001-01-01T00:00:46.284259,27,0,0
2001-01-01T00:00:46.300926,25,0,0
2001-01-01T00:00:46.317593,23,0,0
2001-01-01T00:00:46.334260,21,0,0
2001-01-01T00:00:46.350927,20,0,0
2001-01-01T00:00:46.367594,21,0,0
2001-01-01T00:00:46.384261,31,0,0
2001-01-01T00:00:46.400928,38,0,0
2001-01-01T00:00:46.417595,47,0,0
2001-01-01T00:00:46.434262,57,0,0
2001-01-01T00:00:46.450929,68,0,0
2001-01-01T00:00:46.467596,76,0,0
2001-01-01T00:00:46.484263,81,0,0
2001-01-01T00:00:46.500930,82,0,0
2001-01-01T00:00:46.517597,80,0,0
2001-01-01T00:00:46.534264,76,0,0
2001-01-01T00:00:46.550931,72,0,0
2001-01-01T00:00:46.567598,67,0,0
2001-01-01T00:00:46.584265,63,0,0
2001-01-01T00:00:46.600932,58,0,0
2001-01-01T00:00:46.617599,55,0,0
2001-01-01T00:00:46.634266,49,0,0
2001-01-01T00:00:46.650933,46,0,0
2001-01-01T00:00:46.667600,45,0,0
2001-01-01T00:00:46.684267,43,0,0
2001-01-01T00:00:46.700934,43,0,0
2001-01-01T00:00:46.717601,44,0,0
2001-01-01T00:00:46.734268,44,0,0
2001-01-01T00:00:46.750935,45,0,0
2001-01-01T00:00:46.767602,46,0,0
2001-01-01T00:00:46.784269,46,0,0
2001-01-01T00:00:46.800936,44,0,0
2001-01-01T00:00:46.817603,42,0,0
2001-01-01T00:00:46.834270,40,0,0
2001-01-01T00:00:46.850937,38,0,0
2001-01-01T00:00:46.867604,34,0,0
2001-01-01T00:00:46.884271,32,0,0
2001-01-01T00:00:46.900938,31,0,0
2001-01-01T00:00:46.917605,29,0,0
2001-01-01T00:00:46.934272,30,0,0
2001-01-01T00:00:46.950939,29,0,0
2001-01-01T00:00:46.967606,27,0,0
2001-01-01T00:00:46.984273,25,0,0
2001-01-01T00:00:47.000940,24,0,0
2001-01-01T00:00:47.017607,23,0,0
2001-01-01T00:00:47.034274,25,0,0
2001-01-01T00:00:47.050941,30,0,0
2001-01-01T00:00:47.067608,37,0,0
2001-01-01T00:00:47.084275,46,0,0
2001-01-01T00:00:47.100942,56,0,0
2001-01-01T00:00:47.117609,66,0,0
2001-01-01T00:00:47.134276,79,0,0
2001-01-01T00:00:47.150943,83,0,0
2001-01-01T00:00:47.167610,84,0,0
2001-01-01T00:00:47.184277,82,0,0
2001-01-01T00:00:47.200944,78,0,0
2001-01-01T00:00:47.217611,73,0,0
2001-01-01T00:00:47.234278,69,0,0
2001-01-01T00:00:47.250945,64,0,0
2001-01-01T00:00:47.267612,59,0,0
2001-01-01T00:00:47.284279,55,0,0
2001-01-01T00:00:47.300946,52,0,0
2001-01-01T00:00:47.317613,49,0,0
2001-01-01T00:00:47.334280,47,0,0
2001-01-01T00:00:47.350947,46,0,0
2001-01-01T00:00:47.367614,46,0,0
2001-01-01T00:00:47.384281,44,0,0
2001-01-01T00:00:47.400948,44,0,0
2001-01-01T00:00:47.417615,45,0,0
2001-01-01T00:00:47.434282,45,0,0
2001-01-01T00:00:47.450949,44,0,0
2001-01-01T00:00:47.467616,43,0,0
2001-01-01T00:00:47.484283,41,0,0
2001-01-01T00:00:47.500950,40,0,0
2001-01-01T00:00:47.517617,38,0,0
2001-01-01T00:00:47.534284,35,0,0
2001-01-01T00:00:47.550951,33,0,0
2001-01-01T00:00:47.567618,31,0,0
2001-01-01T00:00:47.584285,33,0,0
2001-01-01T00:00:47.600952,31,0,0
2001-01-01T00:00:47.617619,29,0,0
2001-01-01T00:00:47.634286,25,0,0
2001-01-01T00:00:47.650953,24,0,0
2001-01-01T00:00:47.667620,22,0,0
2001-01-01T00:00:47.684287,22,0,0
2001-01-01T00:00:47.700954,22,0,0
2001-01-01T00:00:47.717621,25,0,0
2001-01-01T00:00:47.734288,31,0,0
2001-01-01T00:00:47.750955,39,0,0
2001-01-01T00:00:47.767622,49,0,0
2001-01-01T00:00:47.784289,59,0,0
2001-01-01T00:00:47.800956,68,0,0
2001-01-01T00:00:47.817623,74,0,0
2001-01-01T00:00:47.834290,76,0,0
2001-01-01T00:00:47.850957,75,0,0
2001-01-01T00:00:47.867624,71,0,0
2001-01-01T00:00:47.884291,67,0,0
2001-01-01T00:00:47.900958,68,0,0
2001-01-01T00:00:47.917625,63,0,0
2001-01-01T00:00:47.934292,58,0,0
2001-01-01T00:00:47.950959,54,0,0
2001-01-01T00:00:47.967626,51,0,0
2001-01-01T00:00:47.984293,48,0,0
2001-01-01T00:00:48.000960,47,0,0
2001-01-01T00:00:48.017627,46,0,0
2001-01-01T00:00:48.034294,46,0,0
2001-01-01T00:00:48.050961,46,0,0
2001-01-01T00:00:48.067628,46,0,0
2001-01-01T00:00:48.084295,47,0,0
2001-01-01T00:00:48.100962,47,0,0
2001-01-01T00:00:48.117629,45,0,0
2001-01-01T00:00:48.134296,44,0,0
2001-01-01T00:00:48.150963,40,0,0
2001-01-01T00:00:48.167630,38,0,0
2001-01-01T00:00:48.184297,36,0,0
2001-01-01T00:00:48.200964,34,0,0
2001-01-01T00:00:48.217631,32,0,0
2001-01-01T00:00:48.234298,30,0,0
2001-01-01T00:00:48.250965,29,0,0
2001-01-01T00:00:48.267632,27,0,0
2001-01-01T00:00:48.284299,24,0,0
2001-01-01T00:00:48.300966,22,0,0
2001-01-01T00:00:48.317633,21,0,0
2001-01-01T00:00:48.334300,20,0,0
2001-01-01T00:00:48.350967,23,0,0
2001-01-01T00:00:48.367634,23,0,0
2001-01-01T00:00:48.384301,26,0,0
2001-01-01T00:00:48.400968,32,0,0
2001-01-01T00:00:48.417635,40,0,0
2001-01-01T00:00:48.434302,48,0,0
2001-01-01T00:00:48.450969,58,0,0
2001-01-01T00:00:48.467636,67,0,0
2001-01-01T00:00:48.484303,73,0,0
2001-01-01T00:00:48.500970,76,0,0
2001-01-01T00:00:48.517637,75,0,0
2001-01-01T00:00:48.534304,72,0,0
2001-01-01T00:00:48.550971,67,0,0
2001-01-01T00:00:48.567638,62,0,0
2001-01-01T00:00:48.584305,57,0,0
2001-01-01T00:00:48.600972,53,0,0
2001-01-01T00:00:48.617639,49,0,0
2001-01-01T00:00:48.634306,46,0,0
2001-01-01T00:00:48.650973,44,0,0
2001-01-01T00:00:48.667640,42,0,0
2001-01-01T00:00:48.684307,42,0,0
2001-01-01T00:00:48.700974,42,0,0
2001-01-01T00:00:48.717641,43,0,0
2001-01-01T00:00:48.734308,43,0,0
2001-01-01T00:00:48.750975,49,0,0
2001-01-01T00:00:48.767642,48,0,0
2001-01-01T00:00:48.784309,46,0,0
2001-01-01T00:00:48.800976,41,0,0
2001-01-01T00:00:48.817643,40,0,0
2001-01-01T00:00:48.834310,38,0,0
2001-01-01T00:00:48.850977,35,0,0
2001-01-01T00:00:48.867644,32,0,0
2001-01-01T00:00:48.884311,30,0,0
2001-01-01T00:00:48.900978,28,0,0
2001-01-01T00:00:48.917645,26,0,0
2001-01-01T00:00:48.934312,25,0,0
2001-01-01T00:00:48.950979,24,0,0
2001-01-01T00:00:48.967646,23,0,0
2001-01-01T00:00:48.984313,21,0,0
2001-01-01T00:00:49.000980,20,0,0
2001-01-01T00:00:49.017647,19,0,0
2001-01-01T00:00:49.034314,18,0,0
2001-01-01T00:00:49.050981,17,0,0
2001-01-01T00:00:49.067648,19,0,0
2001-01-01T00:00:49.084315,25,0,0
2001-01-01T00:00:49.100982,37,0,0
2001-01-01T00:00:49.117649,47,0,0
2001-01-01T00:00:49.134316,57,0,0
2001-01-01T00:00:49.150983,68,0,0
2001-01-01T00:00:49.167650,75,0,0
2001-01-01T00:00:49.184317,78,0,0
2001-01-01T00:00:49.200984,78,0,0
2001-01-01T00:00:49.217651,76,0,0
2001-01-01T00:00:49.234318,72,0,0
2001-01-01T00:00:49.250985,68,0,0
2001-01-01T00:00:49.267652,64,0,0
2001-01-01T00:00:49.284319,60,0,0
2001-01-01T00:00:49.300986,56,0,0
2001-01-01T00:00:49.317653,53,0,0
2001-01-01T00:00:49.334320,50,0,0
2001-01-01T00:00:49.350987,47,0,0
2001-01-01T00:00:49.367654,45,0,0
2001-01-01T00:00:49.384321,43,0,0
2001-01-01T00:00:49.400988,43,0,0
2001-01-01T00:00:49.417655,43,0,0
2001-01-01T00:00:49.434322,43,0,0
2001-01-01T00:00:49.450989,43,0,0
2001-01-01T00:00:49.467656,43,0,0
2001-01-01T00:00:49.484323,43,0,0
2001-01-01T00:00:49.500990,41,0,0
2001-01-01T00:00:49.517657,45,0,0
2001-01-01T00:00:49.534324,42,0,0
2001-01-01T00:00:49.550991,40,0,0
2001-01-01T00:00:49.567658,34,0,0
2001-01-01T00:00:49.584325,31,0,0
2001-01-01T00:00:49.600992,29,0,0
2001-01-01T00:00:49.617659,27,0,0
2001-01-01T00:00:49.634326,25,0,0
2001-01-01T00:00:49.650993,24,0,0
2001-01-01T00:00:49.667660,23,0,0
2001-01-01T00:00:49.684327,21,0,0
2001-01-01T00:00:49.700994,19,0,0
2001-01-01T00:00:49.717661,18,0,0
2001-01-01T00:00:49.734328,17,0,0
2001-01-01T00:00:49.750995,16,0,0
2001-01-01T00:00:49.767662,19,0,0
2001-01-01T00:00:49.784329,23,0,0
2001-01-01T00:00:49.800996,29,0,0
2001-01-01T00:00:49.817663,39,0,0
2001-01-01T00:00:49.834330,50,0,0
2001-01-01T00:00:49.850997,60,0,0
2001-01-01T00:00:49.867664,72,0,0
2001-01-01T00:00:49.884331,76,0,0
2001-01-01T00:00:49.900998,76,0,0
2001-01-01T00:00:49.917665,75,0,0
2001-01-01T00:00:49.934332,71,0,0
2001-01-01T00:00:49.950999,67,0,0
2001-01-01T00:00:49.967666,63,0,0
2001-01-01T00:00:49.984333,59,0,0
2001-01-01T00:00:50.001000,67,0,0
2001-01-01T00:00:50.017667,65,0,0
2001-01-01T00:00:50.034334,61,0,0
2001-01-01T00:00:50.051001,56,0,0
2001-01-01T00:00:50.067668,56,0,0
2001-01-01T00:00:50.084335,51,0,0
2001-01-01T00:00:50.101002,47,0,0
2001-01-01T00:00:50.117669,44,0,0
2001-01-01T00:00:50.134336,41,0,0
2001-01-01T00:00:50.151003,40,0,0
2001-01-01T00:00:50.167670,38,0,0
2001-01-01T00:00:50.184337,37,0,0
2001-01-01T00:00:50.201004,37,0,0
2001-01-01T00:00:50.217671,34,0,0
2001-01-01T00:00:50.234338,35,0,0
2001-01-01T00:00:50.251005,36,0,0
2001-01-01T00:00:50.267672,36,0,0
2001-01-01T00:00:50.284339,36,0,0
2001-01-01T00:00:50.301006,34,0,0
2001-01-01T00:00:50.317673,33,0,0
2001-01-01T00:00:50.334340,31,0,0
2001-01-01T00:00:50.351007,29,0,0
2001-01-01T00:00:50.367674,27,0,0
2001-01-01T00:00:50.384341,25,0,0
2001-01-01T00:00:50.401008,24,0,0
2001-01-01T00:00:50.417675,22,0,0
2001-01-01T00:00:50.434342,21,0,0
2001-01-01T00:00:50.451009,20,0,0
2001-01-01T00:00:50.467676,19,0,0
2001-01-01T00:00:50.484343,17,0,0
2001-01-01T00:00:50.501010,16,0,0
2001-01-01T00:00:50.517677,19,0,0
2001-01-01T00:00:50.534344,18,0,0
2001-01-01T00:00:50.551011,17,0,0
2001-01-01T00:00:50.567678,14,0,0
2001-01-01T00:00:50.584345,15,0,0
2001-01-01T00:00:50.601012,19,0,0
2001-01-01T00:00:50.617679,26,0,0
2001-01-01T00:00:50.634346,34,0,0
2001-01-01T00:00:50.651013,43,0,0
2001-01-01T00:00:50.667680,54,0,0
2001-01-01T00:00:50.684347,62,0,0
2001-01-01T00:00:50.701014,67,0,0
2001-01-01T00:00:50.717681,68,0,0
2001-01-01T00:00:50.734348,67,0,0
2001-01-01T00:00:50.751015,63,0,0
2001-01-01T00:00:50.767682,59,0,0
2001-01-01T00:00:50.784349,54,0,0
2001-01-01T00:00:50.801016,50,0,0
2001-01-01T00:00:50.817683,46,0,0
2001-01-01T00:00:50.834350,48,0,0
2001-01-01T00:00:50.851017,44,0,0
2001-01-01T00:00:50.867684,41,0,0
2001-01-01T00:00:50.884351,39,0,0
2001-01-01T00:00:50.901018,38,0,0
2001-01-01T00:00:50.917685,37,0,0
2001-01-01T00:00:50.934352,38,0,0
2001-01-01T00:00:50.951019,38,0,0
2001-01-01T00:00:50.967686,38,0,0
2001-01-01T00:00:50.984353,38,0,0
2001-01-01T00:00:51.001020,37,0,0
2001-01-01T00:00:51.017687,36,0,0
2001-01-01T00:00:51.034354,35,0,0
2001-01-01T00:00:51.051021,33,0,0
2001-01-01T00:00:51.067688,31,0,0
2001-01-01T00:00:51.084355,25,0,0
2001-01-01T00:00:51.101022,23,0,0
2001-01-01T00:00:51.117689,22,0,0
2001-01-01T00:00:51.134356,20,0,0
2001-01-01T00:00:51.151023,18,0,0
2001-01-01T00:00:51.167690,17,0,0
2001-01-01T00:00:51.184357,16,0,0
2001-01-01T00:00:51.201024,15,0,0
2001-01-01T00:00:51.217691,14,0,0
2001-01-01T00:00:51.234358,13,0,0
2001-01-01T00:00:51.251025,11,0,0
2001-01-01T00:00:51.267692,10,0,0
2001-01-01T00:00:51.284359,10,0,0
2001-01-01T00:00:51.301026,13,0,0
2001-01-01T00:00:51.317693,17,0,0
2001-01-01T00:00:51.334360,26,0,0
2001-01-01T00:00:51.351027,37,0,0
2001-01-01T00:00:51.367694,47,0,0
2001-01-01T00:00:51.384361,61,0,0
2001-01-01T00:00:51.401028,69,0,0
2001-01-01T00:00:51.417695,72,0,0
2001-01-01T00:00:51.434362,72,0,0
2001-01-01T00:00:51.451029,69,0,0
2001-01-01T00:00:51.467696,65,0,0
2001-01-01T00:00:51.484363,61,0,0
2001-01-01T00:00:51.501030,56,0,0
2001-01-01T00:00:51.517697,51,0,0
2001-01-01T00:00:51.534364,47,0,0
2001-01-01T00:00:51.551031,44,0,0
2001-01-01T00:00:51.567698,41,0,0
2001-01-01T00:00:51.584365,44,0,0
2001-01-01T00:00:51.601032,41,0,0
2001-01-01T00:00:51.617699,40,0,0
2001-01-01T00:00:51.634366,40,0,0
2001-01-01T00:00:51.651033,40,0,0
2001-01-01T00:00:51.667700,40,0,0
2001-01-01T00:00:51.684367,40,0,0
2001-01-01T00:00:51.701034,39,0,0
2001-01-01T00:00:51.717701,39,0,0
2001-01-01T00:00:51.734368,38,0,0
2001-01-01T00:00:51.751035,36,0,0
2001-01-01T00:00:51.767702,33,0,0
2001-01-01T00:00:51.784369,31,0,0
2001-01-01T00:00:51.801036,29,0,0
2001-01-01T00:00:51.817703,27,0,0
2001-01-01T00:00:51.834370,22,0,0
2001-01-01T00:00:51.851037,20,0,0
2001-01-01T00:00:51.867704,18,0,0
2001-01-01T00:00:51.884371,17,0,0
2001-01-01T00:00:51.901038,15,0,0
2001-01-01T00:00:51.917705,14,0,0
2001-01-01T00:00:51.934372,13,0,0
2001-01-01T00:00:51.951039,12,0,0
2001-01-01T00:00:51.967706,11,0,0
2001-01-01T00:00:51.984373,11,0,0
2001-01-01T00:00:52.001040,12,0,0
2001-01-01T00:00:52.017707,18,0,0
2001-01-01T00:00:52.034374,30,0,0
2001-01-01T00:00:52.051041,39,0,0
2001-01-01T00:00:52.067708,49,0,0
2001-01-01T00:00:52.084375,58,0,0
2001-01-01T00:00:52.101042,66,0,0
2001-01-01T00:00:52.117709,70,0,0
2001-01-01T00:00:52.134376,70,0,0
2001-01-01T00:00:52.151043,68,0,0
2001-01-01T00:00:52.167710,64,0,0
2001-01-01T00:00:52.184377,59,0,0
2001-01-01T00:00:52.201044,54,0,0
2001-01-01T00:00:52.217711,49,0,0
2001-01-01T00:00:52.234378,45,0,0
2001-01-01T00:00:52.251045,42,0,0
2001-01-01T00:00:52.267712,39,0,0
2001-01-01T00:00:52.284379,36,0,0
2001-01-01T00:00:52.301046,34,0,0
2001-01-01T00:00:52.317713,33,0,0
2001-01-01T00:00:52.334380,32,0,0
2001-01-01T00:00:52.351047,38,0,0
2001-01-01T00:00:52.367714,38,0,0
2001-01-01T00:00:52.384381,38,0,0
2001-01-01T00:00:52.401048,38,0,0
2001-01-01T00:00:52.417715,37,0,0
2001-01-01T00:00:52.434382,36,0,0
2001-01-01T00:00:52.451049,34,0,0
2001-01-01T00:00:52.467716,31,0,0
2001-01-01T00:00:52.484383,29,0,0
2001-01-01T00:00:52.501050,26,0,0
2001-01-01T00:00:52.517717,24,0,0
2001-01-01T00:00:52.534384,22,0,0
2001-01-01T00:00:52.551051,20,0,0
2001-01-01T00:00:52.567718,18,0,0
2001-01-01T00:00:52.584385,17,0,0
2001-01-01T00:00:52.601052,12,0,0
2001-01-01T00:00:52.617719,11,0,0
2001-01-01T00:00:52.634386,10,0,0
2001-01-01T00:00:52.651053,9,0,0
2001-01-01T00:00:52.667720,9,0,0
2001-01-01T00:00:52.684387,8,0,0
2001-01-01T00:00:52.701054,9,0,0
2001-01-01T00:00:52.717721,14,0,0
2001-01-01T00:00:52.734388,19,0,0
2001-01-01T00:00:52.751055,29,0,0
2001-01-01T00:00:52.767722,40,0,0
2001-01-01T00:00:52.784389,49,0,0
2001-01-01T00:00:52.801056,62,0,0
2001-01-01T00:00:52.817723,67,0,0
2001-01-01T00:00:52.834390,68,0,0
2001-01-01T00:00:52.851057,66,0,0
2001-01-01T00:00:52.867724,61,0,0
2001-01-01T00:00:52.884391,56,0,0
2001-01-01T00:00:52.901058,50,0,0
2001-01-01T00:00:52.917725,45,0,0
2001-01-01T00:00:52.934392,40,0,0
2001-01-01T00:00:52.951059,37,0,0
2001-01-01T00:00:52.967726,33,0,0
2001-01-01T00:00:52.984393,31,0,0
2001-01-01T00:00:53.001060,29,0,0
2001-01-01T00:00:53.017727,28,0,0
2001-01-01T00:00:53.034394,28,0,0
2001-01-01T00:00:53.051061,29,0,0
2001-01-01T00:00:53.067728,30,0,0
2001-01-01T00:00:53.084395,31,0,0
2001-01-01T00:00:53.101062,37,0,0
2001-01-01T00:00:53.117729,36,0,0
2001-01-01T00:00:53.134396,35,0,0
2001-01-01T00:00:53.151063,34,0,0
2001-01-01T00:00:53.167730,32,0,0
2001-01-01T00:00:53.184397,30,0,0
2001-01-01T00:00:53.201064,27,0,0
2001-01-01T00:00:53.217731,25,0,0
2001-01-01T00:00:53.234398,23,0,0
2001-01-01T00:00:53.251065,21,0,0
2001-01-01T00:00:53.267732,19,0,0
2001-01-01T00:00:53.284399,18,0,0
2001-01-01T00:00:53.301066,16,0,0
2001-01-01T00:00:53.317733,14,0,0
2001-01-01T00:00:53.334400,13,0,0
2001-01-01T00:00:53.351067,9,0,0
2001-01-01T00:00:53.367734,8,0,0
2001-01-01T00:00:53.384401,10,0,0
2001-01-01T00:00:53.401068,14,0,0
2001-01-01T00:00:53.417735,20,0,0
2001-01-01T00:00:53.434402,30,0,0
2001-01-01T00:00:53.451069,40,0,0
2001-01-01T00:00:53.467736,51,0,0
2001-01-01T00:00:53.484403,59,0,0
2001-01-01T00:00:53.501070,62,0,0
2001-01-01T00:00:53.517737,63,0,0
2001-01-01T00:00:53.534404,61,0,0
2001-01-01T00:00:53.551071,60,0,0
2001-01-01T00:00:53.567738,54,0,0
2001-01-01T00:00:53.584405,48,0,0
2001-01-01T00:00:53.601072,43,0,0
2001-01-01T00:00:53.617739,40,0,0
2001-01-01T00:00:53.634406,35,0,0
2001-01-01T00:00:53.651073,33,0,0
2001-01-01T00:00:53.667740,31,0,0
2001-01-01T00:00:53.684407,30,0,0
2001-01-01T00:00:53.701074,30,0,0
2001-01-01T00:00:53.717741,31,0,0
2001-01-01T00:00:53.734408,32,0,0
2001-01-01T00:00:53.751075,33,0,0
2001-01-01T00:00:53.767742,34,0,0
2001-01-01T00:00:53.784409,35,0,0
2001-01-01T00:00:53.801076,34,0,0
2001-01-01T00:00:53.817743,33,0,0
2001-01-01T00:00:53.834410,31,0,0
2001-01-01T00:00:53.851077,29,0,0
2001-01-01T00:00:53.867744,32,0,0
2001-01-01T00:00:53.884411,30,0,0
2001-01-01T00:00:53.901078,28,0,0
2001-01-01T00:00:53.917745,26,0,0
2001-01-01T00:00:53.934412,24,0,0
2001-01-01T00:00:53.951079,22,0,0
2001-01-01T00:00:53.967746,21,0,0
2001-01-01T00:00:53.984413,19,0,0
2001-01-01T00:00:54.001080,18,0,0
2001-01-01T00:00:54.017747,16,0,0
2001-01-01T00:00:54.034414,15,0,0
2001-01-01T00:00:54.051081,16,0,0
2001-01-01T00:00:54.067748,20,0,0
2001-01-01T00:00:54.084415,27,0,0
2001-01-01T00:00:54.101082,36,0,0
2001-01-01T00:00:54.117749,46,0,0
2001-01-01T00:00:54.134416,57,0,0
2001-01-01T00:00:54.151083,65,0,0
2001-01-01T00:00:54.167750,71,0,0
2001-01-01T00:00:54.184417,72,0,0
2001-01-01T00:00:54.201084,70,0,0
2001-01-01T00:00:54.217751,63,0,0
2001-01-01T00:00:54.234418,58,0,0
2001-01-01T00:00:54.251085,54,0,0
2001-01-01T00:00:54.267752,49,0,0
2001-01-01T00:00:54.284419,45,0,0
2001-01-01T00:00:54.301086,41,0,0
2001-01-01T00:00:54.317753,39,0,0
2001-01-01T00:00:54.334420,36,0,0
2001-01-01T00:00:54.351087,33,0,0
2001-01-01T00:00:54.367754,32,0,0
2001-01-01T00:00:54.384421,32,0,0
2001-01-01T00:00:54.401088,33,0,0
2001-01-01T00:00:54.417755,37,0,0
2001-01-01T00:00:54.434422,38,0,0
2001-01-01T00:00:54.451089,39,0,0
2001-01-01T00:00:54.467756,39,0,0
2001-01-01T00:00:54.484423,38,0,0
2001-01-01T00:00:54.501090,37,0,0
2001-01-01T00:00:54.517757,35,0,0
2001-01-01T00:00:54.534424,33,0,0
2001-01-01T00:00:54.551091,30,0,0
2001-01-01T00:00:54.567758,28,0,0
2001-01-01T00:00:54.584425,26,0,0
2001-01-01T00:00:54.601092,24,0,0
2001-01-01T00:00:54.617759,28,0,0
2001-01-01T00:00:54.634426,25,0,0
2001-01-01T00:00:54.651093,24,0,0
2001-01-01T00:00:54.667760,22,0,0
2001-01-01T00:00:54.684427,21,0,0
2001-01-01T00:00:54.701094,21,0,0
2001-01-01T00:00:54.717761,23,0,0
2001-01-01T00:00:54.734428,28,0,0
2001-01-01T00:00:54.751095,36,0,0
2001-01-01T00:00:54.767762,46,0,0
2001-01-01T00:00:54.784429,56,0,0
2001-01-01T00:00:54.801096,67,0,0
2001-01-01T00:00:54.817763,74,0,0
2001-01-01T00:00:54.834430,77,0,0
2001-01-01T00:00:54.851097,77,0,0
2001-01-01T00:00:54.867764,72,0,0
2001-01-01T00:00:54.884431,68,0,0
2001-01-01T00:00:54.901098,63,0,0
2001-01-01T00:00:54.917765,59,0,0
2001-01-01T00:00:54.934432,55,0,0
2001-01-01T00:00:54.951099,51,0,0
2001-01-01T00:00:54.967766,48,0,0
2001-01-01T00:00:54.984433,45,0,0
2001-01-01T00:00:55.001100,42,0,0
2001-01-01T00:00:55.017767,39,0,0
2001-01-01T00:00:55.034434,39,0,0
2001-01-01T00:00:55.051101,39,0,0
2001-01-01T00:00:55.067768,42,0,0
2001-01-01T00:00:55.084435,43,0,0
2001-01-01T00:00:55.101102,43,0,0
2001-01-01T00:00:55.117769,44,0,0
2001-01-01T00:00:55.134436,43,0,0
2001-01-01T00:00:55.151103,42,0,0
2001-01-01T00:00:55.167770,41,0,0
2001-01-01T00:00:55.184437,39,0,0
2001-01-01T00:00:55.201104,37,0,0
2001-01-01T00:00:55.217771,35,0,0
2001-01-01T00:00:55.234438,33,0,0
2001-01-01T00:00:55.251105,31,0,0
2001-01-01T00:00:55.267772,29,0,0
2001-01-01T00:00:55.284439,27,0,0
2001-01-01T00:00:55.301106,25,0,0
2001-01-01T00:00:55.317773,23,0,0
2001-01-01T00:00:55.334440,21,0,0
2001-01-01T00:00:55.351107,20,0,0
2001-01-01T00:00:55.367774,21,0,0
2001-01-01T00:00:55.384441,31,0,0
2001-01-01T00:00:55.401108,38,0,0
2001-01-01T00:00:55.417775,47,0,0
2001-01-01T00:00:55.434442,57,0,0
2001-01-01T00:00:55.451109,68,0,0
2001-01-01T00:00:55.467776,76,0,0
2001-01-01T00:00:55.484443,81,0,0
2001-01-01T00:00:55.501110,82,0,0
2001-01-01T00:00:55.517777,80,0,0
2001-01-01T00:00:55.534444,76,0,0
2001-01-01T00:00:55.551111,72,0,0
2001-01-01T00:00:55.567778,67,0,0
2001-01-01T00:00:55.584445,63,0,0
2001-01-01T00:00:55.601112,58,0,0
2001-01-01T00:00:55.617779,55,0,0
2001-01-01T00:00:55.634446,49,0,0
2001-01-01T00:00:55.651113,46,0,0
2001-01-01T00:00:55.667780,45,0,0
2001-01-01T00:00:55.684447,43,0,0
2001-01-01T00:00:55.701114,43,0,0
2001-01-01T00:00:55.717781,44,0,0
2001-01-01T00:00:55.734448,44,0,0
2001-01-01T00:00:55.751115,45,0,0
2001-01-01T00:00:55.767782,46,0,0
2001-01-01T00:00:55.784449,46,0,0
2001-01-01T00:00:55.801116,44,0,0
2001-01-01T00:00:55.817783,42,0,0
2001-01-01T00:00:55.834450,40,0,0
2001-01-01T00:00:55.851117,38,0,0
2001-01-01T00:00:55.867784,34,0,0
2001-01-01T00:00:55.884451,32,0,0
2001-01-01T00:00:55.901118,31,0,0
2001-01-01T00:00:55.917785,29,0,0
2001-01-01T00:00:55.934452,30,0,0
2001-01-01T00:00:55.951119,29,0,0
2001-01-01T00:00:55.967786,27,0,0
2001-01-01T00:00:55.984453,25,0,0
2001-01-01T00:00:56.001120,24,0,0
2001-01-01T00:00:56.017787,23,0,0
2001-01-01T00:00:56.034454,25,0,0
2001-01-01T00:00:56.051121,30,0,0
2001-01-01T00:00:56.067788,37,0,0
2001-01-01T00:00:56.084455,46,0,0
2001-01-01T00:00:56.101122,56,0,0
2001-01-01T00:00:56.117789,66,0,0
2001-01-01T00:00:56.134456,79,0,0
2001-01-01T00:00:56.151123,83,0,0
2001-01-01T00:00:56.167790,84,0,0
2001-01-01T00:00:56.184457,82,0,0
2001-01-01T00:00:56.201124,78,0,0
2001-01-01T00:00:56.217791,73,0,0
2001-01-01T00:00:56.234458,69,0,0
2001-01-01T00:00:56.251125,64,0,0
2001-01-01T00:00:56.267792,59,0,0
2001-01-01T00:00:56.284459,55,0,0
2001-01-01T00:00:56.301126,52,0,0
2001-01-01T00:00:56.317793,49,0,0
2001-01-01T00:00:56.334460,47,0,0
2001-01-01T00:00:56.351127,46,0,0
2001-01-01T00:00:56.367794,46,0,0
2001-01-01T00:00:56.384461,44,0,0
2001-01-01T00:00:56.401128,44,0,0
2001-01-01T00:00:56.417795,45,0,0
2001-01-01T00:00:56.434462,45,0,0
2001-01-01T00:00:56.451129,44,0,0
2001-01-01T00:00:56.467796,43,0,0
2001-01-01T00:00:56.484463,41,0,0
2001-01-01T00:00:56.501130,40,0,0
2001-01-01T00:00:56.517797,38,0,0
2001-01-01T00:00:56.534464,35,0,0
2001-01-01T00:00:56.551131,33,0,0
2001-01-01T00:00:56.567798,31,0,0
2001-01-01T00:00:56.584465,33,0,0
2001-01-01T00:00:56.601132,31,0,0
2001-01-01T00:00:56.617799,29,0,0
2001-01-01T00:00:56.634466,25,0,0
2001-01-01T00:00:56.651133,24,0,0
2001-01-01T00:00:56.667800,22,0,0
2001-01-01T00:00:56.684467,22,0,0
2001-01-01T00:00:56.701134,22,0,0
2001-01-01T00:00:56.717801,25,0,0
2001-01-01T00:00:56.734468,31,0,0
2001-01-01T00:00:56.751135,39,0,0
2001-01-01T00:00:56.767802,49,0,0
2001-01-01T00:00:56.784469,59,0,0
2001-01-01T00:00:56.801136,68,0,0
2001-01-01T00:00:56.817803,74,0,0
2001-01-01T00:00:56.834470,76,0,0
2001-01-01T00:00:56.851137,75,0,0
2001-01-01T00:00:56.867804,71,0,0
2001-01-01T00:00:56.884471,67,0,0
2001-01-01T00:00:56.901138,68,0,0
2001-01-01T00:00:56.917805,63,0,0
2001-01-01T00:00:56.934472,58,0,0
2001-01-01T00:00:56.951139,54,0,0
2001-01-01T00:00:56.967806,51,0,0
2001-01-01T00:00:56.984473,48,0,0
2001-01-01T00:00:57.001140,47,0,0
2001-01-01T00:00:57.017807,46,0,0
2001-01-01T00:00:57.034474,46,0,0
2001-01-01T00:00:57.051141,46,0,0
2001-01-01T00:00:57.067808,46,0,0
2001-01-01T00:00:57.084475,47,0,0
2001-01-01T00:00:57.101142,47,0,0
2001-01-01T00:00:57.117809,45,0,0
2001-01-01T00:00:57.134476,44,0,0
2001-01-01T00:00:57.151143,40,0,0
2001-01-01T00:00:57.167810,38,0,0
2001-01-01T00:00:57.184477,36,0,0
2001-01-01T00:00:57.201144,34,0,0
2001-01-01T00:00:57.217811,32,0,0
2001-01-01T00:00:57.234478,30,0,0
2001-01-01T00:00:57.251145,29,0,0
2001-01-01T00:00:57.267812,27,0,0
2001-01-01T00:00:57.284479,24,0,0
2001-01-01T00:00:57.301146,22,0,0
2001-01-01T00:00:57.317813,21,0,0
2001-01-01T00:00:57.334480,20,0,0
2001-01-01T00:00:57.351147,23,0,0
2001-01-01T00:00:57.367814,23,0,0
2001-01-01T00:00:57.384481,26,0,0
2001-01-01T00:00:57.401148,32,0,0
2001-01-01T00:00:57.417815,40,0,0
2001-01-01T00:00:57.434482,48,0,0
2001-01-01T00:00:57.451149,58,0,0
2001-01-01T00:00:57.467816,67,0,0
2001-01-01T00:00:57.484483,73,0,0
2001-01-01T00:00:57.501150,76,0,0
2001-01-01T00:00:57.517817,75,0,0
2001-01-01T00:00:57.534484,72,0,0
2001-01-01T00:00:57.551151,67,0,0
2001-01-01T00:00:57.567818,62,0,0
2001-01-01T00:00:57.584485,57,0,0
2001-01-01T00:00:57.601152,53,0,0
2001-01-01T00:00:57.617819,49,0,0
2001-01-01T00:00:57.634486,46,0,0
2001-01-01T00:00:57.651153,44,0,0
2001-01-01T00:00:57.667820,42,0,0
2001-01-01T00:00:57.684487,42,0,0
2001-01-01T00:00:57.701154,42,0,0
2001-01-01T00:00:57.717821,43,0,0
2001-01-01T00:00:57.734488,43,0,0
2001-01-01T00:00:57.751155,49,0,0
2001-01-01T00:00:57.767822,48,0,0
2001-01-01T00:00:57.784489,46,0,0
2001-01-01T00:00:57.801156,41,0,0
2001-01-01T00:00:57.817823,40,0,0
2001-01-01T00:00:57.834490,38,0,0
2001-01-01T00:00:57.851157,35,0,0
2001-01-01T00:00:57.867824,32,0,0
2001-01-01T00:00:57.884491,30,0,0
2001-01-01T00:00:57.901158,28,0,0
2001-01-01T00:00:57.917825,26,0,0
2001-01-01T00:00:57.934492,25,0,0
2001-01-01T00:00:57.951159,24,0,0
2001-01-01T00:00:57.967826,23,0,0
2001-01-01T00:00:57.984493,21,0,0
2001-01-01T00:00:58.001160,20,0,0
2001-01-01T00:00:58.017827,19,0,0
2001-01-01T00:00:58.034494,18,0,0
2001-01-01T00:00:58.051161,17,0,0
2001-01-01T00:00:58.067828,19,0,0
2001-01-01T00:00:58.084495,25,0,0
2001-01-01T00:00:58.101162,37,0,0
2001-01-01T00:00:58.117829,47,0,0
2001-01-01T00:00:58.134496,57,0,0
2001-01-01T00:00:58.151163,68,0,0
2001-01-01T00:00:58.167830,75,0,0
2001-01-01T00:00:58.184497,78,0,0
2001-01-01T00:00:58.201164,78,0,0
2001-01-01T00:00:58.217831,76,0,0
2001-01-01T00:00:58.234498,72,0,0
2001-01-01T00:00:58.251165,68,0,0
2001-01-01T00:00:58.267832,64,0,0
2001-01-01T00:00:58.284499,60,0,0
2001-01-01T00:00:58.301166,56,0,0
2001-01-01T00:00:58.317833,53,0,0
2001-01-01T00:00:58.334500,50,0,0
2001-01-01T00:00:58.351167,47,0,0
2001-01-01T00:00:58.367834,45,0,0
2001-01-01T00:00:58.384501,43,0,0
2001-01-01T00:00:58.401168,43,0,0
2001-01-01T00:00:58.417835,43,0,0
2001-01-01T00:00:58.434502,43,0,0
2001-01-01T00:00:58.451169,43,0,0
2001-01-01T00:00:58.467836,43,0,0
2001-01-01T00:00:58.484503,43,0,0
2001-01-01T00:00:58.501170,41,0,0
2001-01-01T00:00:58.517837,45,0,0
2001-01-01T00:00:58.534504,42,0,0
2001-01-01T00:00:58.551171,40,0,0
2001-01-01T00:00:58.567838,34,0,0
2001-01-01T00:00:58.584505,31,0,0
2001-01-01T00:00:58.601172,29,0,0
2001-01-01T00:00:58.617839,27,0,0
2001-01-01T00:00:58.634506,25,0,0
2001-01-01T00:00:58.651173,24,0,0
2001-01-01T00:00:58.667840,23,0,0
2001-01-01T00:00:58.684507,21,0,0
2001-01-01T00:00:58.701174,19,0,0
2001-01-01T00:00:58.717841,18,0,0
2001-01-01T00:00:58.734508,17,0,0
2001-01-01T00:00:58.751175,16,0,0
2001-01-01T00:00:58.767842,19,0,0
2001-01-01T00:00:58.784509,23,0,0
2001-01-01T00:00:58.801176,29,0,0
